08/21/2023,123.15,124.46,123.06,123.78,0.0,0.0,358766.0
08/18/2023,121.38,123.42,121.38,123.29,0.0,0.0,443095.0
08/17/2023,121.96,122.66,121.62,121.64,0.0,0.0,186612.0
08/16/2023,121.73,123.16,121.49,121.54,0.0,0.0,291140.0
08/15/2023,122.63,122.925,121.98,122.09,0.0,0.0,248980.0
08/14/2023,122.03,122.99,121.58,122.99,0.0,0.0,145679.0
08/11/2023,121.51,123.22,121.51,122.61,0.0,0.0,226544.0
08/10/2023,121.8,123.565,121.8,122.23,0.0,0.0,216042.0
08/09/2023,121.12,123.385,120.52,121.83,0.0,0.0,287454.0
08/08/2023,120.08,121.4,119.71,121.12,0.0,0.0,270087.0
08/07/2023,120.73,121.66,120.51,121.29,0.0,0.0,140267.0
08/04/2023,120.62,122.13,120.48,120.64,0.0,0.0,116530.0
08/03/2023,121.52,122.73,120.72,120.81,0.0,0.0,195935.0
08/02/2023,121.44,122.33,119.98,122.24,0.0,0.0,329178.0
08/01/2023,121.24,122.495,120.75,122.44,0.0,0.0,365307.0
07/31/2023,123.52,123.93,120.83,121.46,0.0,0.0,746502.0
07/28/2023,122.49,126.99,121.88,123.78,0.0,0.0,513037.0
07/27/2023,120.06,120.775,118.74,119.14,0.0,0.0,407776.0
07/26/2023,120.16,120.4,118.82,119.95,0.0,0.0,306926.0
07/25/2023,119.68,121.12,119.3,120.56,0.0,0.0,250661.0
07/24/2023,120.02,120.49,118.71,119.73,0.0,0.0,163377.0
07/21/2023,119.65,120.05,118.87,119.84,0.0,0.0,184341.0
07/20/2023,119.78,120.215,118.855,119.33,0.0,0.0,175805.0
07/19/2023,118.75,119.41,118.3076,119.11,0.0,0.0,247195.0
07/18/2023,119.01,120.37,118.7,119.08,0.0,0.0,189137.0
07/17/2023,118.4,119.54,117.16,119.26,0.0,0.0,234228.0
07/14/2023,117.69,118.84,116.7,118.35,0.0,0.0,271606.0
07/13/2023,116.85,117.37,116.56,117.01,0.0,0.0,190322.0
07/12/2023,116.58,117.55,115.77,116.87,0.0,0.0,199445.0
07/11/2023,114.31,115.56,113.37,115.51,0.0,0.0,226717.0
07/10/2023,113.31,115.3,113.01,114.47,0.0,0.0,247988.0
07/07/2023,112.65,115.33,112.585,113.79,0.0,0.0,333416.0
07/06/2023,112.25,112.98,111.625,112.47,0.0,0.0,277687.0
07/05/2023,115.62,115.62,112.76,112.94,0.0,0.0,384164.0
07/03/2023,115.41,117.02,115.41,116.54,0.0,0.0,85660.0
06/30/2023,115.22,116.28,114.84,115.86,0.0,0.0,279940.0
06/29/2023,113.43,115.36,112.55,114.78,0.0,0.0,225865.0
06/28/2023,114.81,114.81,112.48,113.52,0.0,0.0,204800.0
06/27/2023,113.83,114.82,113.23,114.72,0.0,0.0,218253.0
06/26/2023,113.06,114.37,113.06,113.61,0.0,0.0,142333.0
06/23/2023,112.9,113.73,112.07,112.83,0.0,0.0,366032.0
06/22/2023,113.95,114.06,112.35,114.05,0.0,0.0,266218.0
06/21/2023,115.14,115.255,113.42,113.62,0.0,0.0,317906.0
06/20/2023,116.88,116.9521,115.71,115.71,0.0,0.0,297013.0
06/16/2023,115.65,117.21,115.36,117.15,0.0,0.0,975338.0
06/15/2023,115.0,116.4,114.945,116.05,0.0,0.0,362582.0
06/14/2023,115.61,115.96,114.35,115.16,0.0,0.0,225220.0
06/13/2023,115.71,116.39,114.76,115.21,0.0,0.0,340628.0
06/12/2023,114.68,115.59,114.3,115.39,0.0,0.0,352968.0
06/09/2023,115.06,115.57,114.39,114.81,0.0,0.0,295007.0
06/08/2023,115.56,115.99,114.79,115.2,0.0,0.0,270471.0
06/07/2023,114.36,115.7,114.06,115.41,0.0,0.0,264132.0
06/06/2023,113.04,114.66,113.04,114.32,0.0,0.0,266852.0
06/05/2023,113.8,114.23,112.8765,113.06,0.0,0.0,244822.0
06/02/2023,114.01,114.745,113.66,114.16,0.0,0.0,353036.0
06/01/2023,112.82,113.52,112.04,112.94,0.0,0.0,170690.0
05/31/2023,113.44,113.56,111.69,112.49,0.0,0.0,360767.0
05/30/2023,114.21,114.21,113.01,113.36,0.0,0.0,121143.0
05/26/2023,114.04,114.26,113.96,114.16,0.0,0.0,60012.0
05/25/2023,114.29,115.28,113.44,113.54,0.0,0.0,196776.0
05/24/2023,117.19,117.19,115.03,115.12,0.0,0.0,297833.0
05/23/2023,117.4,118.45,116.91,117.18,0.0,0.0,155384.0
05/22/2023,118.67,119.52,117.885,118.13,0.0,0.0,229606.0
05/19/2023,119.88,120.27,118.6,119.09,0.0,0.0,156874.0
05/18/2023,118.17,119.05,117.78,118.99,0.0,0.0,94002.0
05/17/2023,118.82,119.04,117.46,118.97,0.0,0.0,168597.0
05/16/2023,120.58,120.58,118.205,118.32,0.0,0.0,180808.0
05/15/2023,120.59,121.0728,120.035,120.58,0.0,0.0,148324.0
05/12/2023,119.68,120.87,119.345,120.79,0.0,0.0,168376.0
05/11/2023,119.48,119.83,118.96,119.28,0.0,0.0,203949.0
05/10/2023,121.09,121.57,118.495,119.62,0.0,0.0,227190.0
05/09/2023,120.87,121.03,119.69,120.58,0.0,0.0,185633.0
05/08/2023,121.86,122.34,120.66,121.5,0.0,0.0,200362.0
05/05/2023,118.99,121.88,118.99,121.7,0.0,0.0,171147.0
05/04/2023,119.94,120.15,118.39,118.8,0.0,0.0,192534.0
05/03/2023,120.47,121.01,119.74,119.9,0.0,0.0,294338.0
05/02/2023,120.74,120.88,115.73,120.48,0.0,0.0,359217.0
05/01/2023,119.41,122.5,119.41,121.64,0.0,0.0,283090.0
04/28/2023,116.51,119.565,116.51,118.51,0.0,0.0,586715.0
04/27/2023,115.75,116.58,114.63,116.57,0.0,0.0,361944.0
04/26/2023,117.01,117.575,115.61,115.75,0.0,0.0,247164.0
04/25/2023,119.43,119.95,117.8834,118.07,0.0,0.0,167516.0
04/24/2023,120.86,121.4199,119.74,120.4,0.0,0.0,229624.0
04/21/2023,119.32,121.07,118.8,120.59,0.0,0.0,361462.0
04/20/2023,119.0,119.8,118.52,119.03,0.32,0.0,296800.0
04/19/2023,118.37,119.43,118.06,118.71,0.12,0.0,252900.0
04/18/2023,119.73,119.73,118.05,118.59,-1.22,0.0,261600.0
04/17/2023,119.5,119.81,118.53,119.81,0.61,0.0,122300.0
04/14/2023,119.18,120.06,118.31,119.2,-0.58,0.0,233500.0
04/13/2023,118.35,120.0,117.89,119.78,1.39,0.0,110600.0
04/12/2023,119.33,119.67,118.19,118.39,-0.66,0.0,134300.0
04/11/2023,119.2,119.99,118.83,119.05,-0.05,0.0,121800.0
04/10/2023,118.38,119.22,117.97,119.1,0.04,0.0,174500.0
04/06/2023,119.34,119.34,117.93,119.06,-0.02,0.0,159200.0
04/05/2023,117.74,119.2,117.23,119.08,1.41,0.0,249700.0
04/04/2023,118.5,118.5,116.78,117.67,-0.98,0.0,183000.0
04/03/2023,117.93,118.81,117.64,118.65,0.46,0.0,151000.0
03/31/2023,116.52,118.27,116.52,118.19,2.24,0.0,206300.0
03/30/2023,116.28,116.77,115.05,115.95,0.08,0.0,148000.0
03/29/2023,115.69,115.94,115.16,115.87,0.85,0.0,138600.0
03/28/2023,113.77,115.12,113.14,115.02,1.04,0.0,189800.0
03/27/2023,113.46,114.84,113.46,113.98,1.01,0.0,170000.0
03/24/2023,111.02,112.99,110.02,112.97,1.25,0.0,148700.0
03/23/2023,112.15,113.44,110.81,111.72,-0.53,0.0,156800.0
03/22/2023,112.8,114.22,112.14,112.25,-0.77,0.0,176700.0
03/21/2023,114.13,114.22,112.47,113.02,0.24,0.0,141200.0
03/20/2023,111.8,113.47,111.8,112.78,2.02,0.0,146400.0
03/17/2023,112.92,112.92,109.95,110.76,-1.92,0.0,393700.0
03/16/2023,110.22,113.28,109.95,112.68,1.3,0.0,209100.0
03/15/2023,113.46,113.75,110.17,111.38,-3.7,0.0,256100.0
03/14/2023,113.87,115.26,113.49,115.08,3.11,0.0,261400.0
03/13/2023,111.45,113.11,111.45,111.97,-0.59,0.0,245400.0
03/10/2023,114.64,114.64,112.28,112.56,-2.01,0.0,201300.0
03/09/2023,115.96,116.41,114.53,114.57,-0.76,0.0,189700.0
03/08/2023,116.41,116.7,115.17,115.33,-1.34,0.0,281600.0
03/07/2023,116.71,117.34,116.22,116.67,-0.16,0.0,247000.0
03/06/2023,120.13,120.19,116.58,116.83,-3.42,0.0,265800.0
03/03/2023,118.97,120.25,117.85,120.25,1.67,0.0,225300.0
03/02/2023,117.42,119.0,117.23,118.58,1.12,0.0,205000.0
03/01/2023,116.18,117.61,116.18,117.46,0.74,0.0,194700.0
02/28/2023,116.65,118.11,116.59,116.72,0.03,0.0,261400.0
02/27/2023,115.84,117.25,115.51,116.69,1.92,0.0,215300.0
02/24/2023,113.8,115.04,112.99,114.77,0.21,0.0,215000.0
02/23/2023,114.81,115.56,113.08,114.56,-0.16,0.0,196400.0
02/22/2023,114.61,116.0,114.43,114.72,-0.36,0.0,257600.0
02/21/2023,116.5,116.5,113.11,115.08,-1.61,0.0,463800.0
02/17/2023,115.0,121.28,114.02,116.69,6.0,0.0,590700.0
02/16/2023,108.72,111.53,108.18,110.69,0.3,0.0,372100.0
02/15/2023,108.82,110.4,108.57,110.39,0.63,0.0,155100.0
02/14/2023,109.8,111.2,109.66,109.76,-0.04,0.0,122400.0
02/13/2023,109.4,110.54,109.25,109.8,0.59,0.0,184900.0
02/10/2023,109.0,109.22,107.89,109.21,-0.04,0.0,217800.0
02/09/2023,111.48,111.81,109.24,109.25,-1.31,0.0,180100.0
02/08/2023,111.72,112.16,110.55,110.56,-1.63,0.0,138700.0
02/07/2023,112.67,112.83,110.71,112.19,-1.25,0.0,189100.0
02/06/2023,114.56,115.5,113.44,113.44,-1.98,0.0,180300.0
02/03/2023,116.59,116.59,115.21,115.42,-1.88,0.0,284000.0
02/02/2023,117.09,118.34,116.58,117.3,0.21,0.0,271600.0
02/01/2023,114.45,118.06,114.39,117.09,1.45,0.0,190800.0
01/31/2023,113.83,116.32,113.31,115.64,2.39,0.0,630901.0
01/30/2023,111.71,113.33,111.46,113.25,0.52,0.0,200201.0
01/27/2023,112.51,112.94,111.86,112.73,-0.06,0.0,204200.0
01/26/2023,112.51,112.89,111.82,112.79,0.72,0.0,139000.0
01/25/2023,111.84,112.51,110.49,112.07,-0.77,0.0,181100.0
01/24/2023,113.03,113.14,111.76,112.84,-0.52,0.0,172500.0
01/23/2023,113.2,113.73,112.46,113.36,0.07,0.0,165400.0
01/20/2023,112.46,113.29,111.69,113.29,1.3,0.0,180700.0
01/19/2023,111.59,112.41,110.33,111.99,0.02,0.0,177300.0
01/18/2023,114.49,114.6,111.92,111.97,-2.09,0.0,118800.0
01/17/2023,114.18,114.53,112.83,114.06,0.09,0.0,204500.0
01/13/2023,113.21,114.31,113.21,113.97,0.47,0.0,177700.0
01/12/2023,113.69,113.78,112.4,113.5,0.04,0.0,179000.0
01/11/2023,113.58,114.43,113.45,113.46,0.03,0.0,141300.0
01/10/2023,113.19,114.34,112.96,113.43,0.1,0.0,162900.0
01/09/2023,114.63,115.68,113.28,113.33,-0.73,0.0,161800.0
01/06/2023,113.38,114.4,112.74,114.06,1.94,0.0,181500.0
01/05/2023,110.64,113.03,109.12,112.12,0.89,0.0,310000.0
01/04/2023,111.26,112.21,110.31,111.23,0.97,0.0,217200.0
01/03/2023,110.58,111.07,109.45,110.26,0.0,0.0,239200.0
