Time,Open,High,Low,Last,Change,%Chg,Volume,Strike
03/20/2023,111.8,114.22,111.8,112.25,1.49,+1.35%,154766,0
03/13/2023,111.45,115.26,109.95,110.76,-1.8,-1.60%,273140,0
03/06/2023,120.13,120.19,112.275,112.56,-7.69,-6.40%,237080,0
02/27/2023,115.84,120.25,115.5126,120.25,5.48,+4.77%,220340,0
02/20/2023,116.5,116.5,112.99,114.77,-1.92,-1.65%,283200,0
02/13/2023,109.4,121.28,108.18,116.69,7.48,+6.85%,285040,0
02/06/2023,114.56,115.5,107.885,109.21,-6.21,-5.38%,181200,0
01/30/2023,111.71,118.34,111.46,115.42,2.69,+2.39%,315500,0
01/23/2023,113.2,113.73,110.488,112.73,-0.56,-0.49%,172440,0
01/16/2023,114.18,114.6,110.33,113.29,-0.68,-0.60%,170325,0
01/09/2023,114.63,115.68,112.3961,113.97,-0.09,-0.08%,164540,0
01/02/2023,110.58,114.4,109.12,114.06,4.08,+3.71%,236975,0
12/26/2022,109.9,111.91,109.012,109.98,-0.03,-0.03%,141325,0
12/19/2022,107.32,110.8,105.78,110.01,2.57,+2.39%,245320,0
12/12/2022,108.46,111.11,106.39,107.44,-0.62,-0.57%,322060,0
12/05/2022,106.86,108.98,105.37,108.06,0.01,+0.01%,212340,0
11/28/2022,105.04,108.55,101.5,108.05,2.14,+2.02%,202300,0
11/21/2022,106.1,106.78,104.93,105.91,-0.13,-0.12%,198500,0
11/14/2022,103.61,107.01,103.61,106.04,1.79,+1.72%,205160,0
11/07/2022,99.19,105.075,97.98,104.25,5.48,+5.55%,211500,0
10/31/2022,99.96,100.6,92.55,98.77,-2.36,-2.33%,285960,0
10/24/2022,97.9,104.115,95.965,101.13,3.61,+3.70%,276900,0
10/17/2022,96.02,99.98,94.53,97.52,2.44,+2.57%,269480,0
10/10/2022,94.39,95.92,90.23,95.08,1.1,+1.17%,250060,0
10/03/2022,96.46,99.83,93.6,93.98,-1.05,-1.10%,211840,0
09/26/2022,97.5,98.8,94.87,95.03,-3.05,-3.11%,303420,0
09/19/2022,101.85,104.55,96.93,98.08,-4.56,-4.44%,199840,0
09/12/2022,107.18,108.27,101.4,102.64,-3.77,-3.54%,335800,0
09/05/2022,101.26,106.82,99.81,106.41,4.98,+4.91%,164625,0
08/29/2022,103.97,104.76,100.72,101.43,-2.98,-2.85%,178800,0
08/22/2022,109.17,109.55,104.17,104.41,-5.75,-5.22%,164783,0
08/15/2022,110.68,112.425,109.55,110.16,-0.92,-0.83%,191520,0
08/08/2022,106.13,111.29,106.006,111.08,5.43,+5.14%,198700,0
08/01/2022,106.3,108.82,105.09,105.65,-2.11,-1.96%,242880,0
07/25/2022,103.72,109.49,101.88,107.76,4.16,+4.02%,286540,0
07/18/2022,100.57,103.9837,97.7,103.6,3.59,+3.59%,325460,0
07/11/2022,99.81,101.85,98.34,100.01,0,0.00%,213720,0
07/04/2022,103.34,103.55,100,100.01,-4.48,-4.29%,236400,0
06/27/2022,102.62,104.67,101.3394,104.49,1.87,+1.82%,230840,0
06/20/2022,97.98,102.65,96.2376,102.62,5.12,+5.25%,235875,0
06/13/2022,102.87,103.23,94.03,97.5,-7.7,-7.32%,368400,0
06/06/2022,109.59,110.805,103.13,105.2,-3.6,-3.31%,191660,0
05/30/2022,108.08,110.0283,105.63,108.8,-0.09,-0.08%,226275,0
05/23/2022,100.95,108.93,99.665,108.89,9.17,+9.20%,394400,0
05/16/2022,107.29,110.39,97.19,99.72,-7.79,-7.25%,398540,0
05/09/2022,110,111.1,103.25,107.51,-3.72,-3.34%,320480,0
05/02/2022,115.42,116.97,109.76,111.23,-3.6,-3.14%,307960,0
04/25/2022,116.5,116.5,109.55,114.83,-1.79,-1.53%,367080,0
04/18/2022,116.78,120.35,113.51,116.62,-0.78,-0.66%,171536,0
04/11/2022,121.13,122.3,116.395,117.4,-4.01,-3.30%,169675,0
04/04/2022,118.72,122.23,115.2,121.41,2.39,+2.01%,268580,0
03/28/2022,117.43,119.829,115.01,119.02,1.78,+1.52%,224041,0
03/21/2022,117.73,120.46,113.995,117.24,-0.5,-0.42%,243580,0
03/14/2022,112.82,119.11,112.77,117.74,5.44,+4.84%,217960,0
03/07/2022,119.31,120.35,110.04,112.3,-7.89,-6.56%,280980,0
02/28/2022,119.47,122.94,117.41,120.19,-0.78,-0.64%,295940,0
02/21/2022,118.5,121.6,114.72,120.97,2.53,+2.14%,341825,0
02/14/2022,113.71,121.52,112.4375,118.44,4.73,+4.16%,325140,0
02/07/2022,115.62,117.655,112.87,113.71,-1.55,-1.34%,252120,0
01/31/2022,115.01,118.93,113.66,115.26,0.21,+0.18%,294820,0
01/24/2022,115.59,118.3,112.45,115.05,-1.33,-1.14%,585700,0
01/17/2022,120.61,122.31,115.83,116.38,-4.8,-3.96%,283650,0
01/10/2022,122.95,123.89,119.87,121.18,-2.5,-2.02%,222500,0
01/03/2022,122.44,124.14,119.29,123.68,1.2,+0.98%,301320,0
12/27/2021,116.64,123.5,116.6,122.48,6.15,+5.29%,441440,0
12/20/2021,114.82,116.56,112.37,116.33,0.44,+0.38%,299300,0
12/13/2021,119.47,120.62,115.67,115.89,-3.85,-3.22%,372640,0
12/06/2021,120.23,121.74,118.83,119.74,0.94,+0.79%,313120,0
11/29/2021,128.05,128.3,116.67,118.8,-7.81,-6.17%,510840,0
11/22/2021,130.5,131.49,126.34,126.61,-3.54,-2.72%,204350,0
11/15/2021,132.42,135.81,129.475,130.15,-1.34,-1.02%,266480,0
11/08/2021,131.95,132.27,128.73,131.49,-0.01,-0.01%,176320,0
11/01/2021,119.98,131.66,119.98,131.5,10.72,+8.88%,361840,0
10/25/2021,127.96,128.875,119.9,120.78,-6.99,-5.47%,304400,0
10/18/2021,127.64,129.79,126.91,127.77,-0.45,-0.35%,163060,0
10/11/2021,124.47,129.25,123.85,128.22,3.71,+2.98%,191460,0
10/04/2021,121.5,126.04,120.45,124.51,2.93,+2.41%,240440,0
09/27/2021,120.18,122.315,118.61,121.58,1.22,+1.01%,249860,0
09/20/2021,119.76,122.32,119.44,120.36,-0.87,-0.72%,222580,0
09/13/2021,125.46,126.42,120.72,121.23,-4.61,-3.66%,284340,0
09/06/2021,134.72,134.72,125.82,125.84,-9.31,-6.89%,256350,0
08/30/2021,135.16,136.23,134.14,135.15,0.62,+0.46%,138020,0
08/23/2021,134.17,134.95,132.22,134.53,1.01,+0.76%,125380,0
08/16/2021,132.59,133.91,131.4,133.52,0.47,+0.35%,128500,0
08/09/2021,128.7,133.89,128.62,133.05,4.62,+3.60%,245080,0
08/02/2021,128.44,130.58,126.32,128.43,-0.49,-0.38%,301760,0
07/26/2021,136.76,140.015,128.18,128.92,-7.32,-5.37%,332940,0
07/19/2021,138.04,139.65,134.285,136.24,-2.8,-2.01%,224700,0
07/12/2021,140.82,141.21,137.3179,139.04,-2.14,-1.52%,182120,0
07/05/2021,140.4,141.46,138.64,141.18,0.77,+0.55%,219250,0
06/28/2021,141.08,141.97,139.73,140.41,-0.51,-0.36%,180820,0
06/21/2021,140.98,142.655,139.7875,140.92,0.82,+0.59%,288420,0
06/14/2021,146,146,139.91,140.1,-5.73,-3.93%,208840,0
06/07/2021,145.53,146.2512,141.12,145.83,0.27,+0.19%,182140,0
05/31/2021,147.98,148.81,144.74,145.56,-1.75,-1.19%,208000,0
05/24/2021,150.47,150.73,146.42,147.31,-2.32,-1.55%,155000,0
05/17/2021,153.11,154.09,148.6,149.63,-3.91,-2.55%,145740,0
05/10/2021,157.74,158.9721,151.34,153.54,-4.02,-2.55%,234540,0
05/03/2021,152.16,157.93,151.74,157.56,6.75,+4.48%,206740,0
04/26/2021,151.75,153.07,147.9,150.81,-0.64,-0.42%,238500,0
04/19/2021,148.23,152.36,146.67,151.45,3.37,+2.28%,210320,0
04/12/2021,144.68,149.59,144.5,148.08,2.88,+1.98%,190800,0
04/05/2021,144.95,145.99,142.19,145.2,1.33,+0.92%,179980,0
03/29/2021,144.24,145.9,141.23,143.87,-0.95,-0.66%,289175,0
03/22/2021,138.97,144.82,138.26,144.82,5.51,+3.96%,286160,0
03/15/2021,141.78,143.03,139.04,139.31,-1.46,-1.04%,321300,0
03/08/2021,134.83,141.24,134.1,140.77,6.68,+4.98%,204120,0
03/01/2021,130.78,134.14,129.47,134.09,4.02,+3.09%,313840,0
02/22/2021,131.25,131.57,126.78,130.07,-2.17,-1.64%,363140,0
02/15/2021,144.61,144.72,131.61,132.24,-12.39,-8.57%,271175,0
02/08/2021,141.25,144.76,140.53,144.63,3.97,+2.82%,161220,0
02/01/2021,134.13,140.73,131.805,140.66,7.69,+5.78%,188180,0
01/25/2021,138.16,140,131.82,132.97,-5.22,-3.78%,208620,0
01/18/2021,139.58,141.125,137.11,138.19,-0.64,-0.46%,228125,0
01/11/2021,139.5,141.33,136.14,138.83,-0.24,-0.17%,178000,0
01/04/2021,135.92,140.62,133.54,139.07,2.18,+1.59%,239660,0
12/28/2020,136.19,137.36,134.8387,136.89,1.19,+0.88%,115850,0
12/21/2020,132.78,136.37,131.5,135.7,1.6,+1.19%,186175,0
12/14/2020,131.05,134.67,128.2,134.1,3.65,+2.80%,316640,0
12/07/2020,127.99,131.1,127.64,130.45,2.77,+2.17%,166920,0
11/30/2020,126.79,128.58,125.15,127.68,0.44,+0.35%,157480,0
11/23/2020,128.06,129.12,125.77,127.24,-0.57,-0.45%,155800,0
11/16/2020,126.28,128.36,125.57,127.81,2.74,+2.19%,204540,0
11/09/2020,128.86,128.86,122.11,125.07,1.47,+1.19%,221940,0
11/02/2020,115.17,124.61,114.67,123.6,9.51,+8.34%,202840,0
10/26/2020,117.35,117.49,110.3445,114.09,-4.26,-3.60%,213280,0
10/19/2020,116.64,118.97,114.58,118.35,2,+1.72%,141920,0
10/12/2020,117.05,118.91,114.22,116.35,-0.46,-0.39%,122060,0
10/05/2020,113.36,118.39,113.21,116.81,3.96,+3.51%,166980,0
09/28/2020,113.17,114.97,111.745,112.85,0.75,+0.67%,198620,0
09/21/2020,113.6,114.67,111.16,112.1,-2.94,-2.56%,248860,0
09/14/2020,119.37,120.06,114.23,115.04,-3.32,-2.81%,279360,0
09/07/2020,118.13,118.91,116.04,118.36,-0.36,-0.30%,174100,0
08/31/2020,118.58,122.44,116.49,118.72,0.59,+0.50%,184280,0
08/24/2020,118.2,120.62,117.56,118.13,0.33,+0.28%,192600,0
08/17/2020,119.14,119.92,116.4,117.8,-0.69,-0.58%,167180,0
08/10/2020,119.58,119.635,116.53,118.49,-0.76,-0.64%,187740,0
08/03/2020,116.85,120.67,114.85,119.25,4.05,+3.52%,227880,0
07/27/2020,118.83,120.45,111.22,115.2,-3.65,-3.07%,353840,0
07/20/2020,119.4,119.87,117.41,118.85,-0.55,-0.46%,304640,0
07/13/2020,114.96,119.71,113.27,119.4,4.45,+3.87%,262220,0
07/06/2020,115.99,116.66,111.405,114.95,-0.02,-0.02%,286940,0
06/29/2020,108.24,115.01,107.89,114.97,7.25,+6.73%,282550,0
06/22/2020,106.94,108.69,103.78,107.72,0.12,+0.11%,418360,0
06/15/2020,103.44,109.09,103.065,107.6,2.24,+2.13%,243800,0
06/08/2020,112.82,114,103.08,105.36,-8.04,-7.09%,305480,0
06/01/2020,111.28,114.28,110.6,113.4,2.01,+1.80%,223220,0
05/25/2020,107.34,113.33,106.78,111.39,6.29,+5.98%,267875,0
05/18/2020,104.07,105.7475,102.95,105.1,3.6,+3.55%,210060,0
05/11/2020,106.66,107.505,99.11,101.5,-6.03,-5.61%,313340,0
05/04/2020,105.53,107.985,104.76,107.53,1.39,+1.31%,287080,0
04/27/2020,109.33,114.66,104.71,106.14,2.02,+1.94%,441080,0
04/20/2020,101.86,107.94,101.13,104.12,1.18,+1.15%,498520,0
04/13/2020,106.99,107.43,99.68,102.94,-4.33,-4.04%,292980,0
04/06/2020,97.07,108.03,97.07,107.27,13.08,+13.89%,402250,0
03/30/2020,94.97,102.75,93.36,94.19,0.19,+0.20%,417800,0
03/23/2020,92.06,97.34,79.84,94,1.49,+1.61%,547880,0
03/16/2020,88.18,101.22,87.4,92.51,-3.88,-4.03%,621360,0
03/09/2020,103.08,105,87.5,96.39,-10.91,-10.17%,652800,0
03/02/2020,101.62,107.63,100.81,107.3,6.23,+6.16%,375380,0
02/24/2020,110.5,111.21,99.315,101.07,-10.91,-9.74%,591040,0
02/17/2020,116.47,116.63,109.16,111.98,-4.69,-4.02%,414850,0
02/10/2020,116.42,117.75,113.69,116.67,-0.03,-0.03%,241020,0
02/03/2020,115.61,118.95,115.51,116.7,1.19,+1.03%,233040,0
01/27/2020,115.54,117.26,114.33,115.51,-1.61,-1.37%,216520,0
01/20/2020,116.66,119.02,114.77,117.12,-0.2,-0.17%,211250,0
01/13/2020,115.49,118.61,115.14,117.32,1.53,+1.32%,205660,0
01/06/2020,113.66,116.17,112.74,115.79,1.75,+1.53%,274740,0
12/30/2019,114.94,116.48,112.81,114.04,-0.98,-0.85%,271950,0
12/23/2019,114.93,115.64,113.8,115.02,0.06,+0.05%,101625,0
12/16/2019,114.46,115.14,112.36,114.96,0.99,+0.87%,258500,0
12/09/2019,112.31,115.385,111.34,113.97,1.89,+1.69%,280920,0
12/02/2019,112.52,113.48,111.14,112.08,-0.04,-0.04%,278480,0
11/25/2019,110.26,113.5805,110.17,112.12,2,+1.82%,181100,0
11/18/2019,109.92,112.05,109.88,110.12,0.16,+0.15%,393560,0
11/11/2019,108.48,110.73,108.02,109.96,0.96,+0.88%,256660,0
11/04/2019,111.01,111.76,108.405,109,-1.79,-1.62%,362460,0
10/28/2019,117.96,119.63,109.54,110.79,-7.09,-6.01%,268860,0
10/21/2019,118.37,119.11,116.5,117.88,0.1,+0.08%,116320,0
10/14/2019,116.32,118,114.3994,117.78,1.45,+1.25%,180240,0
10/07/2019,116.69,118,114.51,116.33,-1,-0.85%,180500,0
09/30/2019,118.95,119.73,113.78,117.33,-1.34,-1.13%,202520,0
09/23/2019,117.61,119.68,117.61,118.67,0.62,+0.53%,173140,0
09/16/2019,117.72,119.02,115.87,118.05,-0.35,-0.30%,300040,0
09/09/2019,121.57,121.57,116.12,118.4,-2.48,-2.05%,231200,0
09/02/2019,120.81,123.21,118.57,120.88,-1.34,-1.10%,223900,0
08/26/2019,120.72,123.4425,119.905,122.22,1.96,+1.63%,207080,0
08/19/2019,121.2,121.48,118.46,120.26,0.01,+0.01%,233940,0
08/12/2019,121.02,121.81,117.95,120.25,-0.83,-0.69%,233600,0
08/05/2019,116.44,124,116.25,121.08,3.06,+2.59%,329660,0
07/29/2019,124.45,125.66,114.84,118.02,-6.47,-5.20%,394340,0
07/22/2019,123.51,124.7668,122.675,124.49,1.09,+0.88%,204820,0
07/15/2019,123.15,124.945,122.3,123.4,-0.01,-0.01%,219800,0
07/08/2019,125.5,125.79,123.01,123.41,-1.2,-0.96%,214340,0
07/01/2019,125,126.195,123.01,124.61,0.27,+0.22%,292150,0
06/24/2019,119.5,124.75,118.48,124.34,4.96,+4.15%,360720,0
06/17/2019,120.04,121,117.4301,119.38,-0.71,-0.59%,324660,0
06/10/2019,122.19,124.445,119.57,120.09,-1.83,-1.50%,249180,0
06/03/2019,113.41,122.6,113.41,121.92,8.65,+7.64%,384020,0
05/27/2019,113.04,113.73,111.5,113.27,0.34,+0.30%,204375,0
05/20/2019,113.19,113.98,112.04,112.93,-0.85,-0.75%,142820,0
05/13/2019,111.92,114.5,111.29,113.78,0.18,+0.16%,155880,0
05/06/2019,112.54,115.52,112.1823,113.6,-0.25,-0.22%,215220,0
04/29/2019,111.38,114.66,109.93,113.85,2.43,+2.18%,281320,0
04/22/2019,108.25,111.65,108.25,111.42,3.21,+2.97%,162000,0
04/15/2019,110.34,110.5,107.3,108.21,-2.1,-1.90%,188250,0
04/08/2019,108.65,110.695,107.52,110.31,1.57,+1.44%,182760,0
04/01/2019,106.91,108.96,106.21,108.74,2.35,+2.21%,191020,0
03/25/2019,103.55,106.68,103.0226,106.39,2.56,+2.47%,214660,0
03/18/2019,103.22,105.68,102.85,103.83,0.78,+0.76%,182000,0
03/11/2019,100.6,103.58,100.57,103.05,2.58,+2.57%,217500,0
03/04/2019,101.25,102.27,99.21,100.47,-0.34,-0.34%,192000,0
02/25/2019,102.27,102.6,100.685,100.81,-1.24,-1.22%,314220,0
02/18/2019,101.84,104,100.64,102.05,0.11,+0.11%,368200,0
02/11/2019,101.88,103.51,101.24,101.94,0.55,+0.54%,233680,0
02/04/2019,99.42,102.31,98.52,101.39,1.84,+1.85%,203660,0
01/28/2019,97.39,99.98,97.24,99.55,2.16,+2.22%,257560,0
01/21/2019,97.42,98.35,95.12,97.39,-0.3,-0.31%,205400,0
01/14/2019,94.28,97.97,93.74,97.69,2.96,+3.12%,222860,0
01/07/2019,90.6,94.82,90.585,94.73,3.66,+4.02%,310940,0
12/31/2018,92.82,94.07,88.26,91.07,-1.63,-1.76%,458725,0
12/24/2018,92.86,93.91,89.67,92.7,-0.85,-0.91%,366850,0
12/17/2018,99.84,100.65,93.51,93.55,-6.79,-6.77%,330020,0
12/10/2018,99.43,101.27,98.22,100.34,0.57,+0.57%,189840,0
12/03/2018,105.23,105.51,98.35,99.77,-4.28,-4.11%,273500,0
11/26/2018,104.72,104.99,101.68,104.05,0.15,+0.14%,268300,0
11/19/2018,106.2,106.65,102.98,103.9,-2.38,-2.24%,184050,0
11/12/2018,104.16,107.15,101.21,106.28,1.99,+1.91%,245540,0
11/05/2018,103.99,105.8,101.25,104.29,0.49,+0.47%,359740,0
10/29/2018,101.32,105.33,95.06,103.8,3.44,+3.43%,471720,0
10/22/2018,104.61,104.735,99.31,100.36,-3.96,-3.80%,380080,0
10/15/2018,101.67,106.09,101.05,104.32,2.67,+2.63%,272680,0
10/08/2018,107.12,107.85,100.34,101.65,-5.52,-5.15%,322000,0
10/01/2018,108.05,109.2,106.3,107.17,-0.57,-0.53%,254840,0
09/24/2018,110.2,111.47,107.55,107.74,-2.58,-2.34%,386600,0
09/17/2018,112.3,112.31,109.67,110.32,-1.65,-1.47%,329780,0
09/10/2018,108.39,112.16,107.54,111.97,4.07,+3.77%,233320,0
09/03/2018,105.32,109.69,104.58,107.9,3.19,+3.05%,286100,0
08/27/2018,103.79,105.77,103.77,104.71,0.91,+0.88%,195020,0
08/20/2018,102.92,104.14,102.6,103.8,1.04,+1.01%,152600,0
08/13/2018,102.24,103.47,100.06,102.76,0.38,+0.37%,222580,0
08/06/2018,104.01,104.95,102.16,102.38,-1.72,-1.65%,289060,0
07/30/2018,103.52,104.5,99.94,104.1,1.2,+1.17%,409780,0
07/23/2018,95.94,103.03,94.05,102.9,7.12,+7.43%,282300,0
07/16/2018,94.77,96.54,93.16,95.78,0.91,+0.96%,168780,0
07/09/2018,94.45,96.83,94.45,94.87,0.79,+0.84%,205500,0
07/02/2018,92.91,95.03,92.46,94.08,0.7,+0.75%,225900,0
06/25/2018,92.77,94.12,91.42,93.38,0.75,+0.81%,299760,0
06/18/2018,94.57,95.08,92.34,92.63,-2.29,-2.41%,402700,0
06/11/2018,93.79,95.37,93.43,94.92,1.26,+1.35%,398240,0
06/04/2018,93.11,94.5,92.04,93.66,0.89,+0.96%,309740,0
05/28/2018,93.46,94.41,92.19,92.77,-1.31,-1.39%,199425,0
05/21/2018,94.02,94.95,93.36,94.08,0.52,+0.56%,152920,0
05/14/2018,94.19,94.71,91.59,93.56,-0.73,-0.77%,331260,0
05/07/2018,92.37,94.32,91.37,94.29,2.03,+2.20%,325180,0
04/30/2018,93.73,94,90.84,92.26,-1.2,-1.28%,573260,0
04/23/2018,94.71,95.43,91.88,93.46,-0.98,-1.04%,342860,0
04/16/2018,93.03,96.39,92.96,94.44,1.69,+1.82%,286740,0
04/09/2018,89.15,93.33,88.595,92.75,4.25,+4.80%,332700,0
04/02/2018,89.37,90.85,86.85,88.5,-1.33,-1.48%,287200,0
03/26/2018,87.66,90.34,87.07,89.83,3.06,+3.53%,253425,0
03/19/2018,90.06,90.49,86.69,86.77,-3.38,-3.75%,229160,0
03/12/2018,90.7,92.1,89.43,90.15,-0.72,-0.79%,274000,0
03/05/2018,89.31,91.14,89.28,90.87,1.19,+1.33%,299120,0
02/26/2018,91.28,91.48,88.3,89.68,-1.31,-1.44%,271300,0
02/19/2018,91.24,92.28,89.93,90.99,-0.84,-0.91%,290075,0
02/12/2018,82.56,92.32,81.59,91.83,9.67,+11.77%,517220,0
02/05/2018,85.1,86,79.97,82.16,-3.64,-4.24%,361580,0
01/29/2018,88.73,89.23,85.54,85.8,-3.34,-3.75%,311400,0
01/22/2018,88.61,89.5,86.35,89.14,0.53,+0.60%,265780,0
01/15/2018,86.36,88.7,86.01,88.61,2.05,+2.37%,225675,0
01/08/2018,86.86,87.76,85.16,86.56,-0.35,-0.40%,255100,0
01/01/2018,86.44,87.93,85.8,86.91,0.63,+0.73%,245750,0
12/25/2017,85.79,87,85.06,86.28,0.38,+0.44%,150275,0
12/18/2017,87.25,87.89,85.43,85.9,-1.08,-1.24%,247300,0
12/11/2017,87.87,87.87,85.7,86.98,-0.92,-1.05%,372740,0
12/04/2017,87.79,89.16,87.32,87.9,0.3,+0.34%,261520,0
11/27/2017,86.37,88.99,86.37,87.6,1.35,+1.57%,239180,0
11/20/2017,85.61,86.82,85.1,86.25,0.6,+0.70%,243800,0
11/13/2017,84.62,86.5,84.62,85.65,0.74,+0.87%,186260,0
11/06/2017,87.02,87.08,84.22,84.91,-2.03,-2.33%,242460,0
10/30/2017,87.46,88.12,86.12,86.94,-0.99,-1.13%,297920,0
10/23/2017,89.16,89.675,85.89,87.93,-1.27,-1.42%,315240,0
10/16/2017,88.92,89.37,87.97,89.2,0.36,+0.41%,181140,0
10/09/2017,88.68,89.37,88.19,88.84,0.26,+0.29%,168780,0
10/02/2017,86.81,88.85,86.54,88.58,2.27,+2.63%,207920,0
09/25/2017,85.75,87.51,85.35,86.31,0.59,+0.69%,228860,0
09/18/2017,84.97,86.76,84.74,85.72,1.01,+1.19%,203020,0
09/11/2017,84.32,85.44,84,84.71,0.89,+1.06%,243940,0
09/04/2017,83.72,84.18,82.32,83.82,-0.06,-0.07%,220475,0
08/28/2017,82.65,84,81.49,83.88,1.49,+1.81%,225240,0
08/21/2017,82.06,82.73,80.95,82.39,0.24,+0.29%,201380,0
08/14/2017,82.63,83.83,81.64,82.15,0.01,+0.01%,199880,0
08/07/2017,82.55,82.95,81.405,82.14,-0.22,-0.27%,200780,0
07/31/2017,82.24,83.5,80.69,82.36,0.05,+0.06%,453240,0
07/24/2017,88.94,89.96,80.83,82.31,-7.2,-8.04%,509740,0
07/17/2017,89.5,90.79,89,89.51,0.08,+0.09%,313540,0
07/10/2017,87.95,89.97,87.48,89.43,1.34,+1.52%,230740,0
07/03/2017,87.21,88.55,86.44,88.09,1.23,+1.42%,250425,0
06/26/2017,86.97,87.59,85.78,86.86,0.06,+0.07%,219820,0
06/19/2017,86.32,87.93,85.93,86.8,0.85,+0.99%,246640,0
06/12/2017,85.24,86.77,84.87,85.95,0.3,+0.35%,256100,0
06/05/2017,86.1,87.09,84.86,85.65,-0.68,-0.79%,264320,0
05/29/2017,84.13,86.73,83.8,86.33,1.96,+2.32%,238225,0
05/22/2017,82.25,84.63,82.05,84.37,2.01,+2.44%,198280,0
05/15/2017,82.43,82.98,81.12,82.36,-0.07,-0.08%,269360,0
05/08/2017,82.08,83.04,81.72,82.43,0.52,+0.63%,304820,0
05/01/2017,80.08,82.17,78.89,81.91,1.61,+2.00%,542360,0
04/24/2017,78.97,80.53,77.62,80.3,2.31,+2.96%,351980,0
04/17/2017,76.03,78.64,75.88,77.99,2.19,+2.89%,244360,0
04/10/2017,75.94,76.97,75.76,75.8,-0.36,-0.47%,226900,0
04/03/2017,76.94,77.46,75.49,76.16,-0.83,-1.08%,324920,0
03/27/2017,75.81,77.38,75.81,76.99,0.37,+0.48%,192420,0
03/20/2017,77.17,77.87,76.32,76.62,-0.46,-0.60%,198060,0
03/13/2017,76.8,77.69,75.35,77.08,0.29,+0.38%,261240,0
03/06/2017,75.47,77,75.18,76.79,0.75,+0.99%,393400,0
02/27/2017,74.1,76.24,73.95,76.04,1.68,+2.26%,327780,0
02/20/2017,73.91,74.81,73.64,74.36,0.46,+0.62%,219025,0
02/13/2017,75.22,75.44,72.86,73.9,-0.89,-1.19%,396040,0
02/06/2017,73.53,76.2,72.44,74.79,1.01,+1.37%,522100,0
01/30/2017,73.07,74.13,72.1,73.78,0.34,+0.46%,412540,0
01/23/2017,71.88,73.94,71.44,73.44,1.8,+2.51%,302920,0
01/16/2017,72.88,73.83,71.55,71.64,-1.86,-2.53%,313225,0
01/09/2017,73.5,74.41,72.36,73.5,0,0.00%,220340,0
01/02/2017,74.26,74.72,72.35,73.5,0.05,+0.07%,348850,0
12/26/2016,73.81,74.69,73.25,73.45,-0.16,-0.22%,193150,0
12/19/2016,73.19,74.16,72.58,73.61,0.68,+0.93%,256820,0
12/12/2016,74.85,75.6,72.73,72.93,-1.82,-2.43%,380660,0
12/05/2016,74.84,75.18,71.84,74.75,0.4,+0.54%,417140,0
11/28/2016,76.1,77.28,72.46,74.35,-1.72,-2.26%,370500,0
11/21/2016,73.7,76.66,73.34,76.07,2.42,+3.29%,238200,0
11/14/2016,72.29,74.26,72.29,73.65,1.8,+2.51%,228200,0
11/07/2016,72.57,76.07,70.75,71.85,0.44,+0.62%,446360,0
10/31/2016,72.93,73.89,70.32,71.41,-1.61,-2.20%,342300,0
10/24/2016,78.1,78.1,72.58,73.02,-4.14,-5.37%,231280,0
10/17/2016,76.02,77.41,75.39,77.16,1.13,+1.49%,139220,0
10/10/2016,76.04,76.52,74.55,76.03,0.39,+0.52%,159600,0
10/03/2016,77.07,77.68,75.19,75.64,-1.77,-2.29%,233320,0
09/26/2016,78.69,78.97,76.97,77.41,-1.38,-1.75%,342960,0
09/19/2016,77.9,79.51,77.84,78.79,1.19,+1.53%,273120,0
09/12/2016,77,78.56,77,77.6,0.14,+0.18%,210380,0
09/05/2016,79.44,80.55,77.43,77.46,-1.7,-2.15%,290550,0
08/29/2016,78.5,79.18,77.49,79.16,0.69,+0.88%,220920,0
08/22/2016,76.77,79.07,76.4,78.47,1.69,+2.20%,247680,0
08/15/2016,75.87,76.99,75.01,76.78,1.2,+1.59%,179740,0
08/08/2016,76.71,77.59,75.35,75.58,-1.01,-1.32%,152680,0
08/01/2016,78.14,78.14,75.94,76.59,-1.59,-2.03%,262640,0
07/25/2016,80.04,81.5,77.11,78.18,-2.28,-2.83%,342160,0
07/18/2016,79.92,80.79,79.22,80.46,0.54,+0.68%,128960,0
07/11/2016,80.08,81.17,79.86,79.92,0.13,+0.16%,154940,0
07/04/2016,78.85,79.85,77.8,79.79,0.62,+0.78%,171750,0
06/27/2016,75.93,79.73,74.27,79.17,2.42,+3.15%,261560,0
06/20/2016,77.18,80.14,76.54,76.75,0.4,+0.52%,269500,0
06/13/2016,77.75,78.08,75.66,76.35,-1.85,-2.37%,271480,0
06/06/2016,77.31,78.55,76.79,78.2,1,+1.30%,176240,0
05/30/2016,77.22,77.79,76.07,77.2,0.06,+0.08%,207450,0
05/23/2016,75.49,77.19,74.73,77.14,1.81,+2.40%,207640,0
05/16/2016,77.08,77.79,74.16,75.33,-1.64,-2.13%,301860,0
05/09/2016,76.17,77.98,75.66,76.97,0.69,+0.90%,247400,0
05/02/2016,75.78,77.33,75.01,76.28,0.28,+0.37%,483740,0
04/25/2016,78.94,80.36,75.71,76,-3.68,-4.62%,431520,0
04/18/2016,79,80.32,78.43,79.68,0.43,+0.54%,252020,0
04/11/2016,77.97,79.3,76.87,79.25,1.89,+2.44%,221740,0
04/04/2016,79.23,79.67,76.66,77.36,-1.73,-2.19%,223660,0
03/28/2016,77.68,79.16,77.38,79.09,1.7,+2.20%,365000,0
03/21/2016,76.99,78.89,76.64,77.39,0.5,+0.65%,228525,0
03/14/2016,75.78,77.76,74.04,76.89,1.11,+1.46%,351180,0
03/07/2016,75.87,76.81,75.09,75.78,-0.22,-0.29%,254380,0
02/29/2016,73.5,76.1,72.98,76,2.67,+3.64%,250980,0
02/22/2016,73.47,74.95,72.05,73.33,0.45,+0.62%,248080,0
02/15/2016,76.05,76.2,71.56,72.88,-2.42,-3.21%,430475,0
02/08/2016,70.56,75.65,69.88,75.3,4.18,+5.88%,459880,0
02/01/2016,72.29,74.66,70.48,71.12,-1.78,-2.44%,338160,0
01/25/2016,67.67,72.91,66.64,72.9,4.65,+6.81%,524100,0
01/18/2016,68.85,68.85,66.33,68.25,0.18,+0.26%,262575,0
01/11/2016,69.93,70.92,67,68.07,-1.81,-2.59%,352420,0
01/04/2016,72,72.21,69.6,69.88,-2.77,-3.81%,377660,0
12/28/2015,72.98,74.47,72.62,72.65,-0.65,-0.89%,119175,0
12/21/2015,71.48,73.64,71.21,73.3,2.19,+3.08%,160450,0
12/14/2015,72.77,73.95,71.09,71.11,-1.75,-2.40%,318780,0
12/07/2015,74.03,74.6,72.24,72.86,-1.49,-2.00%,209780,0
11/30/2015,75.17,75.49,72.92,74.35,-0.66,-0.88%,166560,0
11/23/2015,74.24,75.56,73.14,75.01,0.72,+0.97%,198825,0
11/16/2015,71.87,74.55,71.15,74.29,2.77,+3.87%,169260,0
11/09/2015,73.05,73.62,70.57,71.52,-1.74,-2.38%,310880,0
11/02/2015,74.77,75.96,72.68,73.26,-0.3,-0.41%,332560,0
10/26/2015,71.3,75.25,69.63,73.56,2.16,+3.03%,437340,0
10/19/2015,69.61,72.17,69.54,71.4,1.56,+2.23%,225400,0
10/12/2015,70.31,70.88,68.95,69.84,-0.42,-0.60%,214700,0
10/05/2015,68.43,70.7,67.61,70.26,2.28,+3.35%,247520,0
09/28/2015,65.14,68,63.62,67.98,2.45,+3.74%,352400,0
09/21/2015,67.48,68.34,64.84,65.53,-1.62,-2.41%,282300,0
09/14/2015,67.28,69.38,66.71,67.15,-0.25,-0.37%,307900,0
09/07/2015,67.75,68.62,66.08,67.4,0.13,+0.19%,358875,0
08/31/2015,67.39,67.79,65.5,67.27,-0.44,-0.65%,250320,0
08/24/2015,64.8,68.09,64.66,67.71,0.1,+0.15%,320300,0
08/17/2015,69.62,70.34,67.04,67.61,-2.26,-3.23%,239300,0
08/10/2015,69.01,70.1,67.93,69.87,1.08,+1.57%,239660,0
08/03/2015,67.78,69.34,66.54,68.79,1,+1.48%,284580,0
07/27/2015,60.9,68.71,60.73,67.79,6.04,+9.78%,632380,0
07/20/2015,63.82,64.09,61.5,61.75,-2.18,-3.41%,238220,0
07/13/2015,63.78,64.55,63.63,63.93,0.25,+0.39%,238460,0
07/06/2015,63.45,64.45,63.17,63.68,-0.11,-0.17%,275440,0
06/29/2015,64.15,64.56,63.56,63.79,-0.69,-1.07%,343375,0
06/22/2015,65.64,65.64,64.03,64.48,-0.81,-1.24%,286520,0
06/15/2015,64.06,65.83,63.62,65.29,0.71,+1.10%,377500,0
06/08/2015,64.24,64.82,63.56,64.58,0.3,+0.47%,287560,0
06/01/2015,64.02,64.63,63.31,64.28,0.51,+0.80%,431520,0
05/25/2015,64.48,64.85,63.65,63.77,-0.73,-1.13%,261675,0
05/18/2015,65.12,66.31,64.33,64.5,-0.7,-1.07%,288900,0
05/11/2015,62.97,65.42,62.38,65.2,2.04,+3.23%,493060,0
05/04/2015,64.34,64.98,62.61,63.16,-0.89,-1.39%,688960,0
04/27/2015,63.38,64.93,62,64.05,0.76,+1.20%,555020,0
04/20/2015,63.07,63.47,62.44,63.29,0.45,+0.72%,255540,0
04/13/2015,63.05,63.73,61.98,62.84,-0.65,-1.02%,320560,0
04/06/2015,62.92,63.57,62.76,63.49,0.34,+0.54%,248460,0
03/30/2015,63.41,63.98,62.82,63.15,-0.03,-0.05%,340775,0
03/23/2015,63.35,63.91,62.71,63.18,-0.05,-0.08%,314220,0
03/16/2015,63.43,64.54,62.57,63.23,0.13,+0.21%,378800,0
03/09/2015,64.13,64.7,62.71,63.1,-1.17,-1.82%,322960,0
03/02/2015,66.04,66.56,63.92,64.27,-1.6,-2.43%,238680,0
02/23/2015,65.92,66.4,65.45,65.87,-0.3,-0.45%,230980,0
02/16/2015,64.13,66.27,64.13,66.17,1.61,+2.49%,280200,0
02/09/2015,64.04,64.74,63.18,64.56,0.23,+0.36%,437520,0
02/02/2015,63.23,66.6,62.71,64.33,1.22,+1.93%,517100,0
01/26/2015,63.58,64.01,61.39,63.11,-0.65,-1.02%,360260,0
01/19/2015,64.3,65.07,63.65,63.76,-0.71,-1.10%,252475,0
01/12/2015,65.49,66.53,63.37,64.47,-1,-1.53%,233880,0
01/05/2015,66.2,66.7,63.48,65.47,-1.18,-1.77%,334560,0
12/29/2014,67.59,68.67,65.91,66.65,-1.21,-1.78%,169800,0
12/22/2014,67.41,68.17,66.83,67.86,0.73,+1.09%,156725,0
12/15/2014,64.86,67.27,63.4,67.13,2.49,+3.85%,301300,0
12/08/2014,66.19,66.58,64.59,64.64,-1.62,-2.44%,172280,0
12/01/2014,64.82,66.9,64.53,66.26,1.01,+1.55%,225060,0
11/24/2014,65.21,65.6,64.91,65.25,0.15,+0.23%,144175,0
11/17/2014,64.96,65.81,64.36,65.1,0.27,+0.42%,253200,0
11/10/2014,64.84,65.87,64.6,64.83,0.06,+0.09%,241760,0
11/03/2014,61.73,64.85,61.34,64.77,2.53,+4.06%,392920,0
10/27/2014,61.37,62.69,58.36,62.24,0.32,+0.52%,455100,0
10/20/2014,58.71,62.37,58.46,61.92,3.22,+5.49%,343360,0
10/13/2014,57.41,59.07,55.59,58.7,1.2,+2.09%,701440,0
10/06/2014,60.25,60.65,57.44,57.5,-2.61,-4.34%,322080,0
09/29/2014,60.86,61.84,58.91,60.11,-1.27,-2.07%,331480,0
09/22/2014,61.1,61.5,60.57,61.38,0.22,+0.36%,313440,0
09/15/2014,62.88,63.04,61.14,61.16,-1.54,-2.46%,336600,0
09/08/2014,65.01,65.37,62.48,62.7,-2.5,-3.83%,195500,0
09/01/2014,64.38,65.2,63.92,65.2,1.05,+1.64%,202775,0
08/25/2014,64.01,64.23,63.38,64.15,0.53,+0.83%,123100,0
08/18/2014,63.6,64.39,63.34,63.62,0.32,+0.51%,195860,0
08/11/2014,62.68,63.7,61.77,63.3,0.94,+1.51%,204720,0
08/04/2014,61.3,62.42,60.52,62.36,1.23,+2.01%,264880,0
07/28/2014,63.11,63.24,60.57,61.13,-2.37,-3.73%,339280,0
07/21/2014,65.68,65.68,63.24,63.5,-2.55,-3.86%,335500,0
07/14/2014,66.75,67.07,64.66,66.05,-0.3,-0.45%,255760,0
07/07/2014,66.75,66.92,65.46,66.35,-0.62,-0.93%,167600,0
06/30/2014,66.89,68,66.55,66.97,-0.04,-0.06%,168375,0
06/23/2014,66.81,67.01,65.79,67.01,0.38,+0.57%,210320,0
06/16/2014,66.31,67.1,65.41,66.63,0.22,+0.33%,186620,0
06/09/2014,67.03,67.58,64.95,66.41,-0.7,-1.04%,137860,0
06/02/2014,66.72,67.3,65.8,67.11,0.52,+0.78%,142780,0
05/26/2014,66.14,66.66,65.44,66.59,0.6,+0.91%,175900,0
05/19/2014,66.15,67.18,65.34,65.99,-0.15,-0.23%,153000,0
05/12/2014,66.96,67.84,65.53,66.14,-0.45,-0.68%,166160,0
05/05/2014,66.14,67.26,65.63,66.59,-0.09,-0.13%,203680,0
04/28/2014,66.91,67.72,66.32,66.68,-0.46,-0.69%,242240,0
04/21/2014,66.52,67.78,66.23,67.14,0.57,+0.86%,188140,0
04/14/2014,65.13,66.89,64.59,66.57,1.85,+2.86%,248300,0
04/07/2014,65.87,67.35,64.54,64.72,-1.32,-2.00%,181880,0
03/31/2014,64.7,67.51,64.45,66.04,1.77,+2.75%,231780,0
03/24/2014,64.54,65.22,63.11,64.27,-0.48,-0.74%,140980,0
03/17/2014,64.72,65.76,64.47,64.75,0.24,+0.37%,181140,0
03/10/2014,65.71,65.86,63.99,64.51,-1.22,-1.86%,166400,0
03/03/2014,65.53,66.37,65.1,65.73,-0.44,-0.66%,190520,0
02/24/2014,64.7,66.74,64.25,66.17,1.53,+2.37%,203740,0
02/17/2014,64.86,65.48,64.26,64.64,-0.13,-0.20%,205775,0
02/10/2014,63.2,64.94,62.87,64.77,1.28,+2.02%,179740,0
02/03/2014,63.86,64,61.18,63.49,-0.31,-0.49%,361740,0
01/27/2014,64.16,64.62,62.84,63.8,-0.68,-1.05%,336240,0
01/20/2014,67.57,67.73,64.44,64.48,-2.76,-4.10%,352300,0
01/13/2014,68.19,68.78,67,67.24,-0.81,-1.19%,762740,0
01/06/2014,67.13,68.68,66.25,68.05,1.2,+1.80%,416180,0
12/30/2013,66.76,68.01,66.49,66.85,0.13,+0.19%,209150,0
12/23/2013,65.7,67.1,65.24,66.72,1.36,+2.08%,125200,0
12/16/2013,64.09,65.46,63.82,65.36,1.66,+2.61%,221680,0
12/09/2013,64.57,64.7,63.14,63.7,-0.99,-1.53%,177500,0
12/02/2013,64.96,65.73,63.1,64.69,-0.23,-0.35%,177820,0
11/25/2013,64.42,65.25,63.72,64.92,0.72,+1.12%,324400,0
11/18/2013,65.09,65.1,63.75,64.2,-0.74,-1.14%,337220,0
11/11/2013,64.19,65.23,63.94,64.94,0.69,+1.07%,145560,0
11/04/2013,63.94,64.77,63.07,64.25,0.36,+0.56%,167380,0
10/28/2013,64.12,64.7,62.21,63.89,-0.39,-0.61%,218760,0
10/21/2013,63.18,64.36,63.01,64.28,1.09,+1.72%,115280,0
10/14/2013,61.08,63.29,60.79,63.19,1.74,+2.83%,128820,0
10/07/2013,59.77,61.51,59.19,61.45,1.32,+2.20%,228500,0
09/30/2013,59.25,61.66,59.15,60.13,0.48,+0.80%,286080,0
09/23/2013,60.19,60.75,59.63,59.65,-0.59,-0.98%,187940,0
09/16/2013,59.71,60.57,59.17,60.24,1.23,+2.08%,218080,0
09/09/2013,58.7,59.94,58.3,59.01,0.5,+0.85%,165880,0
09/02/2013,59.44,59.78,57.4,58.51,-0.3,-0.51%,196200,0
08/26/2013,59.9,60.42,58.43,58.81,-1.03,-1.72%,139720,0
08/19/2013,59.24,60.04,58.77,59.84,0.55,+0.93%,110420,0
08/12/2013,59.88,60.58,59.03,59.29,-0.83,-1.38%,95320,0
08/05/2013,60.43,60.61,58.96,60.12,-0.36,-0.60%,135500,0
07/29/2013,57.69,60.74,57.69,60.48,2.54,+4.38%,360360,0
07/22/2013,59.71,60.11,57.55,57.94,-1.64,-2.75%,174840,0
07/15/2013,59.6,59.93,59.13,59.58,-0.07,-0.12%,161120,0
07/08/2013,56.79,59.66,56.6,59.65,3.03,+5.35%,149100,0
07/01/2013,55.49,56.63,55.36,56.62,1.41,+2.55%,109050,0
06/24/2013,54.47,55.73,54.13,55.21,0.18,+0.33%,224780,0
06/17/2013,57.32,57.58,54.59,55.03,-2.01,-3.52%,192100,0
06/10/2013,57.19,57.76,55.67,57.04,0.04,+0.07%,114560,0
06/03/2013,56.71,57.31,55.67,57,0.28,+0.49%,165140,0
05/27/2013,56.73,57.35,56.03,56.72,0.5,+0.89%,195675,0
05/20/2013,56.93,57.52,55.87,56.22,-0.85,-1.49%,128540,0
05/13/2013,56.55,57.16,55.74,57.07,0.58,+1.03%,192340,0
05/06/2013,56.05,56.99,55.76,56.49,0.5,+0.89%,257040,0
04/29/2013,55.74,56.47,55.02,55.99,0.6,+1.08%,329940,0
04/22/2013,55.28,56.84,54.75,55.39,0.31,+0.56%,174160,0
04/15/2013,56.62,56.68,54.41,55.08,-1.82,-3.20%,179020,0
04/08/2013,56.25,57.69,55.89,56.9,0.81,+1.44%,141640,0
04/01/2013,57.42,57.42,55.75,56.09,-1.26,-2.20%,189480,0
03/25/2013,56.39,57.47,55.63,57.35,1.11,+1.97%,185400,0
03/18/2013,55.34,56.88,55.16,56.24,0.54,+0.97%,182440,0
03/11/2013,55.17,55.74,54.95,55.7,0.45,+0.81%,253680,0
03/04/2013,53.28,55.25,52.97,55.25,1.78,+3.33%,153300,0
02/25/2013,52.94,53.99,52.09,53.47,0.65,+1.23%,243500,0
02/18/2013,53.36,53.85,51.95,52.82,-0.29,-0.55%,246150,0
02/11/2013,52.47,53.31,51.88,53.11,0.6,+1.14%,175640,0
02/04/2013,51.91,53.43,51.8,52.51,0.28,+0.54%,275440,0
01/28/2013,51.95,52.25,50.79,52.23,0.2,+0.38%,315140,0
01/21/2013,52.22,52.39,51.73,52.03,-0.3,-0.57%,210775,0
01/14/2013,50.88,52.33,50.75,52.33,1.29,+2.53%,156540,0
01/07/2013,49.37,51.87,49.1,51.04,1.42,+2.86%,268860,0
12/31/2012,47.19,49.63,47.04,49.62,2.28,+4.82%,325750,0
12/24/2012,47.5,48.1,47.19,47.34,-0.42,-0.88%,138525,0
12/17/2012,46.99,48.55,46.98,47.76,0.84,+1.79%,409460,0
12/10/2012,47.62,48.1,46.84,46.92,-0.78,-1.64%,227880,0
12/03/2012,48.02,48.07,46.61,47.7,0.03,+0.06%,230160,0
11/26/2012,47.41,48.12,46.71,47.67,0.05,+0.10%,273000,0
11/19/2012,46.59,47.63,46.4,47.62,1.43,+3.10%,228050,0
11/12/2012,48,48.35,45.19,46.19,-1.83,-3.81%,482380,0
11/05/2012,49.7,50.75,48,48.02,-1.47,-2.97%,300400,0
10/29/2012,50.8,53.36,49.17,49.49,-2.16,-4.18%,414233,0
10/22/2012,52.3,52.65,51.05,51.65,-0.69,-1.32%,138160,0
10/15/2012,51.21,53.06,50.93,52.34,1.11,+2.17%,127620,0
10/08/2012,52.45,52.72,51.11,51.23,-1.34,-2.55%,144500,0
10/01/2012,51.71,53,51.04,52.57,0.86,+1.66%,219500,0
09/24/2012,52.17,53.03,51.09,51.71,-0.96,-1.82%,253660,0
09/17/2012,52.43,53.19,51.85,52.67,0.21,+0.40%,252460,0
09/10/2012,50.7,52.59,50.33,52.46,0.97,+1.88%,173580,0
09/03/2012,50.72,51.8,50.07,51.49,0.84,+1.66%,367375,0
08/27/2012,51,51.14,50.2,50.65,-0.17,-0.33%,182040,0
08/20/2012,50.68,50.91,50,50.82,0.2,+0.40%,147900,0
08/13/2012,49.75,50.87,49.3,50.62,0.73,+1.46%,146680,0
08/06/2012,50.06,50.46,49.51,49.89,-0.17,-0.34%,166580,0
07/30/2012,50.72,51.22,48.08,50.06,-0.59,-1.16%,230600,0
07/23/2012,49.47,51.96,48.35,50.65,0.54,+1.08%,311180,0
07/16/2012,49.81,50.81,49.15,50.11,0.27,+0.54%,167860,0
07/09/2012,49.49,50.21,47.56,49.84,-1.62,-3.15%,420080,0
07/02/2012,51.07,52.74,50.92,51.46,0.41,+0.80%,195825,0
06/25/2012,51.19,51.7,50.06,51.05,-0.67,-1.30%,204840,0
06/18/2012,52.18,53.26,51,51.72,-0.55,-1.05%,217600,0
06/11/2012,52.75,52.93,51.71,52.27,-0.13,-0.25%,171160,0
06/04/2012,50.25,52.53,49.69,52.4,2.14,+4.26%,187920,0
05/28/2012,51.03,51.62,49.36,50.26,-0.35,-0.69%,840150,0
05/21/2012,49.82,51.41,49.74,50.61,0.91,+1.83%,222520,0
05/14/2012,52.83,52.85,49.63,49.7,-3.69,-6.91%,210080,0
05/07/2012,53.51,54.11,52.69,53.39,-0.33,-0.61%,190400,0
04/30/2012,54.76,55.39,53.61,53.72,-1.07,-1.95%,268800,0
04/23/2012,54.39,55.11,53.55,54.79,-0.1,-0.18%,285200,0
04/16/2012,54.13,55.05,53.73,54.89,0.81,+1.50%,204060,0
04/09/2012,53.71,54.64,52.03,54.08,-0.26,-0.48%,250360,0
04/02/2012,54.76,55.49,54,54.34,-0.43,-0.79%,211550,0
03/26/2012,54.53,55,54.46,54.77,0.48,+0.88%,206180,0
03/19/2012,54.55,54.96,53.23,54.29,-0.45,-0.82%,173900,0
03/12/2012,53.51,54.92,53.27,54.74,1.2,+2.24%,274440,0
03/05/2012,53.02,53.9,51.96,53.54,0.34,+0.64%,278060,0
02/27/2012,53.04,53.47,52.2,53.2,-0.03,-0.06%,310260,0
02/20/2012,53.03,53.6,51.65,53.23,0.41,+0.78%,178475,0
02/13/2012,53.28,53.57,51.93,52.82,-0.22,-0.41%,160260,0
02/06/2012,53.35,53.82,51.15,53.04,-0.46,-0.86%,181920,0
01/30/2012,51.75,53.8,51.26,53.5,1.22,+2.33%,200160,0
01/23/2012,51.53,52.55,51.01,52.28,0.73,+1.42%,193640,0
01/16/2012,51.84,52.37,51.31,51.55,0.07,+0.14%,167875,0
01/09/2012,52.1,52.41,51.12,51.48,-0.37,-0.71%,191320,0
01/02/2012,53.18,53.44,51.44,51.85,-0.32,-0.61%,226900,0
12/26/2011,52.33,52.87,51.63,52.17,-0.41,-0.78%,113950,0
12/19/2011,51.47,52.73,49.85,52.58,1.4,+2.74%,162560,0
12/12/2011,50.12,51.34,48.8,51.18,0.45,+0.89%,306720,0
12/05/2011,51,51.9,49.68,50.73,-0.22,-0.43%,199620,0
11/28/2011,47.56,51.75,47.56,50.95,4.44,+9.55%,286300,0
11/21/2011,47.31,48.07,46.48,46.51,-1.52,-3.16%,219600,0
11/14/2011,48.34,49.16,47.47,48.03,-0.57,-1.17%,198120,0
11/07/2011,48.56,48.9,46.75,48.6,-0.16,-0.33%,225840,0
10/31/2011,48.69,49.24,45.98,48.76,-0.37,-0.75%,227280,0
10/24/2011,48.75,49.85,47.93,49.13,0.64,+1.32%,184760,0
10/17/2011,48.55,48.84,46.92,48.49,-0.15,-0.31%,131160,0
10/10/2011,46.83,49.06,46.77,48.64,2.69,+5.85%,187680,0
10/03/2011,44.17,46.88,41.98,45.95,1.28,+2.87%,228200,0
09/26/2011,46.41,48.47,44.66,44.67,-1.48,-3.21%,202500,0
09/19/2011,48.26,49.14,45.3,46.15,-3.08,-6.26%,238640,0
09/12/2011,47.67,50.08,47.09,49.23,1.15,+2.39%,211200,0
09/05/2011,46.67,48.98,46.62,48.08,0.09,+0.19%,334125,0
08/29/2011,49.42,51.12,47.71,47.99,-0.51,-1.05%,203160,0
08/22/2011,47.81,48.7,46.5,48.5,1.84,+3.94%,248820,0
08/15/2011,47.65,48.63,45.52,46.66,-1.14,-2.38%,299360,0
08/08/2011,46.32,48.25,44.96,47.8,0.06,+0.13%,375580,0
08/01/2011,51.51,51.66,46.83,47.74,-3.31,-6.48%,292960,0
07/25/2011,52.56,53.24,49.79,51.05,-1.99,-3.75%,243600,0
07/18/2011,52.4,53.79,47.61,53.04,0.38,+0.72%,298680,0
07/11/2011,53.5,54.1,52.18,52.66,-1.55,-2.86%,135320,0
07/04/2011,53.26,54.66,52.83,54.21,0.97,+1.82%,180600,0
06/27/2011,50.62,53.34,50.23,53.24,2.63,+5.20%,197580,0
06/20/2011,50.45,51.42,49.93,50.61,0.13,+0.26%,144900,0
06/13/2011,51.78,51.94,50.06,50.48,0.08,+0.16%,243740,0
06/06/2011,51.16,51.37,50.27,50.4,-0.75,-1.47%,165660,0
05/30/2011,52.62,53.48,51.11,51.15,-1.08,-2.07%,265825,0
05/23/2011,51.7,52.44,51.17,52.23,-0.29,-0.55%,145800,0
05/16/2011,52.05,53.8,51.67,52.52,0.21,+0.40%,250140,0
05/09/2011,51.34,53.08,51.2,52.31,1.05,+2.05%,185940,0
05/02/2011,52.54,53.02,51.03,51.26,-1.19,-2.27%,169220,0
04/25/2011,51.25,52.75,50.77,52.45,1.08,+2.10%,149340,0
04/18/2011,49.74,51.51,48.85,51.37,1.14,+2.27%,138025,0
04/11/2011,50.54,50.54,49.15,50.23,-0.13,-0.26%,77660,0
04/04/2011,50.94,51.87,50.13,50.36,-0.42,-0.83%,111380,0
03/28/2011,49.15,51.11,48.52,50.78,1.81,+3.70%,143700,0
03/21/2011,48.5,49.75,48.31,48.97,0.97,+2.02%,111280,0
03/14/2011,47.74,48.56,46.5,48,-0.14,-0.29%,191580,0
03/07/2011,48.08,49.76,47.35,48.14,0.2,+0.42%,192520,0
02/28/2011,48.21,48.87,47.23,47.94,-0.1,-0.21%,195780,0
02/21/2011,48.84,49.33,46.95,48.04,-1.45,-2.93%,193700,0
02/14/2011,49.73,49.9,48.9,49.49,0.01,+0.02%,210200,0
02/07/2011,48.81,50.06,48.53,49.48,0.88,+1.81%,144700,0
01/31/2011,47.79,48.88,47.53,48.6,0.79,+1.65%,130820,0
01/24/2011,48.13,48.94,47.69,47.81,-0.2,-0.42%,133000,0
01/17/2011,48.47,49.14,47.7,48.01,-0.46,-0.95%,192750,0
01/10/2011,47.22,48.52,46.75,48.47,1.09,+2.30%,133140,0
01/03/2011,47.78,48.3,47.08,47.38,-0.19,-0.40%,119380,0
12/27/2010,47.71,48.36,47.41,47.57,-0.3,-0.63%,96560,0
12/20/2010,47.34,48.45,46.99,47.87,0.76,+1.61%,124500,0
12/13/2010,47.17,47.51,46.59,47.11,0.05,+0.11%,186460,0
12/06/2010,48.16,48.37,46.36,47.06,-1.16,-2.41%,220380,0
11/29/2010,46.03,48.42,45.19,48.22,1.87,+4.03%,146220,0
11/22/2010,45.3,46.67,44.95,46.35,0.77,+1.69%,86300,0
11/15/2010,46.21,46.55,45.07,45.58,-0.43,-0.93%,116260,0
11/08/2010,46.08,46.92,45.98,46.01,-0.41,-0.88%,133600,0
11/01/2010,45.03,46.5,44.54,46.42,1.54,+3.43%,136700,0
10/25/2010,45.2,45.71,44.7,44.88,-0.17,-0.38%,175320,0
10/18/2010,46.94,47.61,44.4,45.05,-1.71,-3.66%,232300,0
10/11/2010,46.39,47.45,46.16,46.76,0.32,+0.69%,118600,0
10/04/2010,45.29,46.75,44.9,46.44,1.16,+2.56%,119080,0
09/27/2010,44.76,46.55,44.21,45.28,0.45,+1.00%,145020,0
09/20/2010,45.35,45.66,43.97,44.83,-0.44,-0.97%,122360,0
09/13/2010,44.38,46.02,44.38,45.27,1.26,+2.86%,247940,0
09/06/2010,43.78,44.55,43.35,44.01,0.16,+0.36%,88075,0
08/30/2010,41.89,43.94,40.75,43.85,1.84,+4.38%,127440,0
08/23/2010,42.36,42.36,40.31,42.01,-0.05,-0.12%,111960,0
08/16/2010,41.69,43.1,41.4,42.06,0.21,+0.50%,104460,0
08/09/2010,44,44,41.1,41.85,-1.92,-4.39%,160620,0
08/02/2010,43.78,44.05,43.1,43.77,0.7,+1.63%,168080,0
07/26/2010,42.91,43.82,42.32,43.07,0.37,+0.87%,204220,0
07/19/2010,39.83,42.84,39.18,42.7,2.87,+7.21%,199780,0
07/12/2010,39.23,40.89,38.81,39.83,0.6,+1.53%,135380,0
07/05/2010,38.35,39.38,37.17,39.23,1.2,+3.16%,127475,0
06/28/2010,38.9,39.5,36.91,38.03,-0.71,-1.83%,185200,0
06/21/2010,40.86,41.12,38,38.74,-1.78,-4.39%,183220,0
06/14/2010,39.36,40.9,38.88,40.52,1.39,+3.55%,165660,0
06/07/2010,38.56,39.16,37.41,39.13,0.67,+1.74%,158660,0
05/31/2010,39.72,40.14,38.31,38.46,-1.4,-3.51%,243650,0
05/24/2010,38.56,40.13,37.34,39.86,1.15,+2.97%,232800,0
05/17/2010,40.87,41.81,37.94,38.71,-2.1,-5.15%,277060,0
05/10/2010,41.61,42.84,40.62,40.81,0.47,+1.17%,236540,0
05/03/2010,43.29,44.12,39.65,40.34,-2.7,-6.27%,284560,0
04/26/2010,43.27,44.18,42.5,43.04,-0.2,-0.46%,254480,0
04/19/2010,42.64,43.35,42.25,43.24,0.39,+0.91%,175640,0
04/12/2010,41,44.36,40.8,42.85,1.93,+4.72%,306780,0
04/05/2010,39.53,40.93,39.22,40.92,1.42,+3.59%,146860,0
03/29/2010,39.17,39.84,38.63,39.5,0.38,+0.97%,104775,0
03/22/2010,39.51,40,38.79,39.12,-0.69,-1.73%,181620,0
03/15/2010,40.39,40.85,39.69,39.81,-0.59,-1.46%,178540,0
03/08/2010,40.3,40.83,40,40.4,0.05,+0.12%,253740,0
03/01/2010,38.56,40.37,38.34,40.35,1.82,+4.72%,158760,0
02/22/2010,38.34,38.65,37.56,38.53,0.41,+1.08%,154980,0
02/15/2010,38.4,38.41,37.24,38.12,0.08,+0.21%,266950,0
02/08/2010,35.03,38.49,34.87,38.04,3.01,+8.59%,387080,0
02/01/2010,35.41,36.31,34.46,35.03,-0.45,-1.27%,153720,0
01/25/2010,36.22,36.59,35.48,35.48,-0.58,-1.61%,145700,0
01/18/2010,36.11,36.89,35.93,36.06,-0.18,-0.50%,134350,0
01/11/2010,36.84,37.01,36.07,36.24,-0.54,-1.47%,137140,0
01/04/2010,35.89,36.89,35.89,36.78,1.04,+2.91%,201340,0
12/28/2009,36.42,36.52,35.74,35.74,-0.63,-1.73%,140275,0
12/21/2009,36.15,36.44,35.96,36.37,0.44,+1.22%,169875,0
12/14/2009,36.94,36.98,35.84,35.93,-0.65,-1.78%,178040,0
12/07/2009,36.41,37.09,36.04,36.58,0.05,+0.14%,121460,0
11/30/2009,35.81,36.99,35.42,36.53,0.62,+1.73%,162360,0
11/23/2009,36.86,37.3,35.61,35.91,-0.43,-1.18%,63875,0
11/16/2009,36.34,37.07,35.75,36.34,0.34,+0.94%,213040,0
11/09/2009,35.62,36.27,35.45,36,0.56,+1.58%,175400,0
11/02/2009,35.38,35.76,34.52,35.44,0.13,+0.37%,239180,0
10/26/2009,36.85,37.46,35.04,35.31,-1.65,-4.46%,266540,0
10/19/2009,37.69,37.78,36.43,36.96,-0.53,-1.41%,215420,0
10/12/2009,38.07,38.96,36.5,37.49,-0.49,-1.29%,284840,0
10/05/2009,36.21,37.98,35.98,37.98,1.86,+5.15%,164300,0
09/28/2009,36.64,37.65,36.03,36.12,-0.26,-0.71%,160920,0
09/21/2009,36.47,38.09,36.21,36.38,-0.32,-0.87%,187700,0
09/14/2009,35.28,37.47,35.11,36.7,1.22,+3.44%,205920,0
09/07/2009,34.7,35.66,34.19,35.48,1.18,+3.44%,187050,0
08/31/2009,34.47,34.85,33.58,34.3,-0.47,-1.35%,145580,0
08/24/2009,35.76,35.95,34.47,34.77,-0.86,-2.41%,111700,0
08/17/2009,34.96,36,34.3,35.63,0.18,+0.51%,142100,0
08/10/2009,35.11,36.21,34.58,35.45,0.13,+0.37%,138800,0
08/03/2009,35.34,36.09,34.97,35.32,0.4,+1.15%,153740,0
07/27/2009,35.9,35.9,34.48,34.92,-1.14,-3.16%,251540,0
07/20/2009,35.39,36.49,35.12,36.06,0.92,+2.62%,200220,0
07/13/2009,32.75,36.1,32.36,35.14,2.43,+7.43%,264640,0
07/06/2009,33.3,33.48,32.14,32.71,-0.94,-2.79%,174120,0
06/29/2009,33.49,34.65,33.08,33.65,0.29,+0.87%,179975,0
06/22/2009,32.73,33.45,31.91,33.36,0.45,+1.37%,241780,0
06/15/2009,33.84,34.02,32.74,32.91,-1.11,-3.26%,234820,0
06/08/2009,32.08,34.26,32.04,34.02,1.58,+4.87%,292200,0
06/01/2009,31.55,33.31,31.55,32.44,1.43,+4.61%,342740,0
05/25/2009,30.53,31.9,30.07,31.01,0.33,+1.08%,311625,0
05/18/2009,30.9,31.62,30.4,30.68,0.03,+0.10%,247760,0
05/11/2009,30.68,31.28,30.01,30.65,-0.71,-2.26%,281220,0
05/04/2009,30.85,31.93,30.49,31.36,0.67,+2.18%,339240,0
04/27/2009,29.81,31.63,29.58,30.69,0.41,+1.35%,363200,0
04/20/2009,29.24,30.47,28.61,30.28,0.61,+2.06%,447060,0
04/13/2009,33.19,33.19,29.1,29.67,-3.83,-11.43%,528240,0
04/06/2009,32.73,33.55,31.22,33.5,0.65,+1.98%,318775,0
03/30/2009,31.41,33.21,30.29,32.85,0.75,+2.34%,390020,0
03/23/2009,30.08,32.51,29.54,32.1,2.61,+8.85%,281620,0
03/16/2009,27.58,30.51,27.1,29.49,2.07,+7.55%,469580,0
03/09/2009,25.45,27.55,25.11,27.42,1.87,+7.32%,363460,0
03/02/2009,27.62,27.84,24.95,25.55,-2.51,-8.95%,548240,0
02/23/2009,27.56,28.54,26.25,28.06,0.74,+2.71%,628840,0
02/16/2009,28.24,28.54,26.7,27.32,-1.86,-6.37%,416050,0
02/09/2009,30.6,30.83,28.59,29.18,-1.68,-5.44%,482760,0
02/02/2009,30.38,30.93,29.02,30.86,0.04,+0.13%,809100,0
01/26/2009,30.05,32.32,29.91,30.82,0.81,+2.70%,376960,0
01/19/2009,30.23,30.58,29.04,30.01,-0.43,-1.41%,481600,0
01/12/2009,32.56,32.75,29.37,30.44,-2.1,-6.45%,625820,0
01/05/2009,35.69,36.07,32.17,32.54,-3.28,-9.16%,633240,0
12/29/2008,33.61,36.08,32.93,35.82,2.24,+6.67%,339325,0
12/22/2008,33.17,33.69,32.07,33.58,0.14,+0.42%,318875,0
12/15/2008,32.5,34.93,31.52,33.44,1.2,+3.72%,554780,0
12/08/2008,32.9,33.85,30.09,32.24,0.1,+0.31%,726460,0
12/01/2008,32.49,32.49,29.25,32.14,-1.3,-3.89%,580300,0
11/24/2008,29.52,33.44,29.38,33.44,4.21,+14.40%,409450,0
11/17/2008,29.5,31.13,27.84,29.23,-0.65,-2.18%,633840,0
11/10/2008,32.11,32.29,28.52,29.88,-1.71,-5.41%,374520,0
11/03/2008,30.01,32.33,30.01,31.59,1.27,+4.19%,367200,0
10/27/2008,26.07,30.62,25.89,30.32,3.16,+11.63%,586960,0
10/20/2008,32.31,32.99,25.49,27.16,-5.07,-15.73%,758340,0
10/13/2008,34.36,35.94,27.01,32.23,-1.3,-3.88%,747320,0
10/06/2008,35.52,36.68,23.74,33.53,-2.99,-8.19%,718040,0
09/29/2008,38.95,39.75,36.3,36.52,-3.23,-8.13%,521500,0
09/22/2008,41.07,41.57,39.13,39.75,-1.64,-3.96%,320680,0
09/15/2008,39.15,44.03,37.65,41.39,1.11,+2.76%,555020,0
09/08/2008,40.62,40.93,38.93,40.28,0.54,+1.36%,344320,0
09/01/2008,40.79,41.78,38.96,39.74,-0.65,-1.61%,314200,0
08/25/2008,39.86,41.06,39.01,40.39,0.29,+0.72%,289080,0
08/18/2008,40.53,40.53,38.87,40.1,-0.38,-0.94%,282780,0
08/11/2008,39.73,41.11,39.24,40.48,0.75,+1.89%,266840,0
08/04/2008,38.81,40.3,37.69,39.73,1.02,+2.63%,334620,0
07/28/2008,37.17,39.88,36.75,38.71,1.12,+2.98%,446860,0
07/21/2008,38.39,38.95,36.54,37.59,-0.48,-1.26%,670680,0
07/14/2008,41.88,43.64,37.21,38.07,-3.35,-8.09%,910000,0
07/07/2008,41.45,42.08,40.25,41.42,0.26,+0.63%,338560,0
06/30/2008,42.4,42.56,40.49,41.16,-1.2,-2.83%,532175,0
06/23/2008,42.25,42.83,40.74,42.36,0.22,+0.52%,1390920,0
06/16/2008,42.95,43.42,41.85,42.14,-1.12,-2.59%,440720,0
06/09/2008,44.73,45.14,42.6,43.26,-1.5,-3.35%,484460,0
06/02/2008,44.89,46.19,43.8,44.76,0.04,+0.09%,422520,0
05/26/2008,44.22,45.89,43.23,44.72,0.77,+1.75%,551825,0
05/19/2008,44.57,44.85,43.2,43.95,-0.77,-1.72%,420020,0
05/12/2008,43.98,45.21,43.26,44.72,0.99,+2.26%,267640,0
05/05/2008,44.15,44.75,42.49,43.73,-0.36,-0.82%,347920,0
04/28/2008,45.06,45.33,43.81,44.09,-0.86,-1.91%,389160,0
04/21/2008,44.52,45.4,43.39,44.95,0.68,+1.54%,460140,0
04/14/2008,39.75,45.42,39.2,44.27,4.45,+11.18%,746520,0
04/07/2008,40.71,41.14,39.56,39.82,-0.74,-1.82%,309600,0
03/31/2008,38.46,41.18,38.22,40.56,2.01,+5.21%,348220,0
03/24/2008,37.84,39.76,37.81,38.55,0.85,+2.25%,309120,0
03/17/2008,34.8,38.88,34.51,37.7,2.3,+6.50%,843150,0
03/10/2008,35.97,37.04,34.7,35.4,-0.38,-1.06%,563540,0
03/03/2008,37.29,38.11,35.02,35.78,-1.7,-4.54%,688940,0
02/25/2008,38.64,40.07,37.29,37.48,-1.3,-3.35%,485980,0
02/18/2008,39.24,39.47,37.8,38.78,-0.16,-0.41%,441200,0
02/11/2008,36.29,39.82,36.29,38.94,2.59,+7.13%,1626220,0
02/04/2008,38.11,38.15,33.87,36.35,-1.71,-4.49%,661680,0
01/28/2008,36.42,38.72,35.23,38.06,1.7,+4.68%,507580,0
01/21/2008,33.65,36.8,32.87,36.36,1.25,+3.56%,680500,0
01/14/2008,38.26,39.38,33.13,35.11,-2.89,-7.61%,615720,0
01/07/2008,40.61,40.85,38,38,-2.41,-5.96%,524300,0
12/31/2007,41.41,42.72,39,40.41,-1.28,-3.07%,480925,0
12/24/2007,42.68,43.51,41.34,41.69,-0.72,-1.70%,206125,0
12/17/2007,41.39,42.74,39.69,42.41,0.69,+1.65%,525520,0
12/10/2007,43.46,44.01,41.61,41.72,-1.73,-3.98%,294920,0
12/03/2007,42.06,43.77,40.61,43.45,1.24,+2.94%,236320,0
11/26/2007,41.97,43.51,40.42,42.21,0.21,+0.50%,480300,0
11/19/2007,41,42.46,39.83,42,0.56,+1.35%,321700,0
11/12/2007,41.52,43.26,40.89,41.44,-0.18,-0.43%,367000,0
11/05/2007,42.3,44,41,41.62,-1.34,-3.12%,374140,0
10/29/2007,44.3,44.75,42.09,42.96,-1.43,-3.22%,438300,0
10/22/2007,40.64,44.73,40.64,44.39,3.39,+8.27%,588440,0
10/15/2007,39.54,42.47,38.53,41,1.41,+3.56%,472040,0
10/08/2007,39.8,40.11,38.39,39.59,-0.34,-0.85%,236700,0
10/01/2007,37.79,40.11,37.75,39.93,2.06,+5.44%,243180,0
09/24/2007,36.54,38.22,35.95,37.87,1.25,+3.41%,258260,0
09/17/2007,33.96,37.02,33.7,36.62,2.51,+7.36%,459920,0
09/10/2007,34.45,35.09,33.37,34.11,-0.09,-0.26%,416220,0
09/03/2007,36.1,36.65,33.92,34.2,-2.13,-5.86%,437575,0
08/27/2007,36.42,36.66,34.84,36.33,-0.27,-0.74%,259700,0
08/20/2007,37.62,37.83,35.75,36.6,-0.98,-2.61%,407400,0
08/13/2007,39.4,40.09,35.43,37.58,-1.26,-3.24%,514900,0
08/06/2007,36.4,40.03,34.95,38.84,2.66,+7.35%,704280,0
07/30/2007,35.43,37.37,35,36.18,0.8,+2.26%,632220,0
07/23/2007,38.1,38.34,34.99,35.38,-2.57,-6.77%,520000,0
07/16/2007,37.73,39.42,36.58,37.95,0.04,+0.11%,785680,0
07/09/2007,37.21,37.91,36.35,37.91,0.83,+2.24%,268320,0
07/02/2007,35.86,37.13,35.82,37.08,1.52,+4.27%,184650,0
06/25/2007,35.69,36.78,35,35.56,-0.25,-0.70%,304340,0
06/18/2007,37.94,38,35.48,35.81,-2.11,-5.56%,319980,0
06/11/2007,36.8,38.17,35.73,37.92,0.94,+2.54%,334000,0
06/04/2007,37.96,38.3,36.51,36.98,-1.07,-2.81%,237980,0
05/28/2007,37.17,38.31,37.01,38.05,0.95,+2.56%,392300,0
05/21/2007,36.7,37.8,36.58,37.1,0.29,+0.79%,354520,0
05/14/2007,37.26,37.47,36.15,36.81,-0.4,-1.07%,402400,0
05/07/2007,37.5,37.72,35.99,37.21,-0.285,-0.76%,398760,0
04/30/2007,37.8,37.8,36.54,37.495,-0.405,-1.07%,351680,0
04/23/2007,37.005,38.29,36.81,37.9,0.34,+0.91%,371880,0
04/16/2007,34.875,38.49,34.4,37.56,2.885,+8.32%,629760,0
04/09/2007,34.275,34.99,33.68,34.675,0.375,+1.09%,227640,0
04/02/2007,33.6,34.38,33.34,34.3,0.835,+2.50%,187350,0
03/26/2007,34.125,34.17,33.195,33.465,-0.79,-2.31%,292280,0
03/19/2007,32.965,34.28,32.865,34.255,1.435,+4.37%,259680,0
03/12/2007,33.22,33.725,32.25,32.82,-0.4,-1.20%,376480,0
03/05/2007,32.57,33.675,32.42,33.22,0.33,+1.00%,460239,0
02/26/2007,33.525,33.875,32.25,32.89,-0.505,-1.51%,700160,0
02/19/2007,32.58,33.525,32.485,33.395,0.755,+2.31%,495050,0
02/12/2007,33.04,33.295,32.145,32.64,-0.36,-1.09%,493120,0
02/05/2007,30.81,35.17,30.15,33,2.19,+7.11%,841799,0
01/29/2007,30.395,30.99,30.305,30.81,0.31,+1.02%,352320,0
01/22/2007,30.47,30.9,29.845,30.5,0.15,+0.49%,378200,0
01/15/2007,30.475,31,29.715,30.35,0.165,+0.55%,313350,0
01/08/2007,29.005,30.22,28.725,30.185,1.085,+3.73%,218560,0
01/01/2007,29.75,30.35,28.88,29.1,-0.42,-1.42%,356733,0
12/25/2006,29.025,30.24,29.025,29.52,0.395,+1.36%,214199,0
12/18/2006,29.97,30,28.92,29.125,-0.76,-2.54%,350640,0
12/11/2006,30.055,30.21,29.48,29.885,-0.13,-0.43%,341360,0
12/04/2006,30.35,31.145,29.795,30.015,-0.235,-0.78%,342520,0
11/27/2006,30.05,30.635,29.705,30.25,0.025,+0.08%,357880,0
11/20/2006,30.255,30.47,29.85,30.225,-0.025,-0.08%,285200,0
11/13/2006,28.475,30.345,28.4,30.25,1.72,+6.03%,451799,0
11/06/2006,27.995,28.725,27.76,28.53,0.625,+2.24%,343720,0
10/30/2006,27.35,27.98,26.88,27.905,0.34,+1.23%,354719,0
10/23/2006,27.98,28.375,27.385,27.565,-0.46,-1.64%,296920,0
10/16/2006,27.55,28.375,27,28.025,0.56,+2.04%,317559,0
10/09/2006,26.06,27.565,26,27.465,1.245,+4.75%,285520,0
10/02/2006,25.285,26.375,24.695,26.22,0.78,+3.07%,366240,0
09/25/2006,24.875,26.075,24.67,25.44,0.645,+2.60%,360920,0
09/18/2006,24.995,25.425,24.45,24.795,-0.285,-1.14%,310519,0
09/11/2006,24.875,25.75,24.72,25.08,0.085,+0.34%,280200,0
09/04/2006,25.69,26.12,24.675,24.995,-0.76,-2.95%,250000,0
08/28/2006,25.21,26.325,25.2,25.755,0.545,+2.16%,255320,0
08/21/2006,25.95,26.065,25.06,25.21,-0.845,-3.24%,180040,0
08/14/2006,25.3,26.375,25.145,26.055,0.79,+3.13%,190200,0
08/07/2006,25.985,25.995,24.935,25.265,-0.83,-3.18%,267160,0
07/31/2006,25.75,26.37,25.195,26.095,0.285,+1.10%,269199,0
07/24/2006,24.575,25.95,24.575,25.81,1.455,+5.97%,321839,0
07/17/2006,23.88,25.8,23.505,24.355,0.475,+1.99%,378640,0
07/10/2006,24.64,25.37,23.43,23.88,-0.745,-3.03%,333120,0
07/03/2006,25.18,25.675,24.565,24.625,-0.18,-0.73%,468650,0
06/26/2006,25.325,26.5,24.805,24.805,-0.45,-1.78%,961079,0
06/19/2006,25.4,25.475,24.805,25.255,-0.085,-0.34%,203719,0
06/12/2006,25.865,25.995,24.89,25.34,-0.535,-2.07%,206720,0
06/05/2006,26.315,26.55,25.355,25.875,-0.44,-1.67%,251600,0
05/29/2006,25.85,26.41,25.675,26.315,0.45,+1.74%,249700,0
05/22/2006,26.035,26.315,25.2,25.865,-0.235,-0.90%,244840,0
05/15/2006,26.455,26.745,25.885,26.1,-0.355,-1.34%,147640,0
05/08/2006,27.02,27.35,26.11,26.455,-0.53,-1.96%,128560,0
05/01/2006,26.205,27.085,26.075,26.985,0.78,+2.98%,159160,0
04/24/2006,26.2,26.51,25.69,26.205,0.055,+0.21%,227200,0
04/17/2006,26.5,27.11,25.51,26.15,-0.225,-0.85%,197560,0
04/10/2006,26.715,26.725,26.16,26.375,-0.415,-1.55%,117950,0
04/03/2006,27.625,27.665,26.55,26.79,-0.835,-3.02%,161640,0
03/27/2006,27.165,27.67,26.755,27.625,0.395,+1.45%,180000,0
03/20/2006,27.5,27.655,27.09,27.23,-0.27,-0.98%,141120,0
03/13/2006,27.085,27.665,26.965,27.5,0.35,+1.29%,160240,0
03/06/2006,26.74,27.15,26.24,27.15,0.44,+1.65%,168920,0
02/27/2006,26.81,27.1,26.225,26.71,-0.18,-0.67%,158960,0
02/20/2006,26.985,27.13,26.71,26.89,-0.245,-0.90%,172400,0
02/13/2006,28.415,28.415,26.69,27.135,-1.345,-4.72%,241079,0
02/06/2006,27.68,28.725,27.145,28.48,0.8,+2.89%,140680,0
01/30/2006,27.29,28.435,27.25,27.68,0.29,+1.06%,166880,0
01/23/2006,27.54,27.775,26.82,27.39,-0.14,-0.51%,124280,0
01/16/2006,27.02,27.6,26.755,27.53,0.455,+1.68%,109250,0
01/09/2006,26.795,27.375,26.795,27.075,0.28,+1.04%,121120,0
01/02/2006,26.185,27.03,25.855,26.795,0.695,+2.66%,204700,0
12/26/2005,26.485,26.855,26.075,26.1,-0.435,-1.64%,115550,0
12/19/2005,26.175,26.575,26,26.535,0.235,+0.89%,239879,0
12/12/2005,27.26,27.5,26.2,26.3,-0.945,-3.47%,218640,0
12/05/2005,27.3,27.74,26.885,27.245,-0.105,-0.38%,249880,0
11/28/2005,27.175,27.5,26.38,27.35,0.34,+1.26%,219360,0
11/21/2005,26.755,27.07,26.5,27.01,0.2,+0.75%,106450,0
11/14/2005,26.325,27.215,26.075,26.81,0.36,+1.36%,117680,0
11/07/2005,26.15,26.54,25.575,26.45,0.36,+1.38%,149480,0
10/31/2005,25.265,26.325,25.135,26.09,0.715,+2.82%,187000,0
10/24/2005,24.15,25.385,24.115,25.375,1.1,+4.53%,336440,0
10/17/2005,26,26.45,23.8,24.275,-1.7,-6.54%,397480,0
10/10/2005,24.725,26.105,24.48,25.975,1.015,+4.07%,266480,0
10/03/2005,25.025,25.45,24.525,24.96,0.055,+0.22%,214079,0
09/26/2005,25,25.37,24.635,24.905,0.84,+3.49%,207560,0
09/19/2005,24.25,24.52,23.555,24.065,-0.235,-0.97%,230920,0
09/12/2005,24.725,25.125,24.005,24.3,-0.495,-2.00%,138640,0
09/05/2005,25,25.5,24.58,24.795,-0.11,-0.44%,105700,0
08/29/2005,24.005,25.225,23.9,24.905,0.795,+3.30%,136880,0
08/22/2005,24.62,24.765,24.11,24.11,-0.455,-1.85%,81680,0
08/15/2005,25.065,25.35,24.305,24.565,-0.5,-1.99%,172639,0
08/08/2005,25.1,25.365,24.93,25.065,0.065,+0.26%,174400,0
08/01/2005,24.98,25.32,24.83,25,0.075,+0.30%,221480,0
07/25/2005,25.185,25.495,24.84,24.925,-0.255,-1.01%,211399,0
07/18/2005,25.065,25.495,24.7,25.18,0.075,+0.30%,210439,0
07/11/2005,25.74,26.05,24.99,25.105,-0.55,-2.14%,169319,0
07/04/2005,25.43,25.695,24.625,25.655,0.155,+0.61%,151000,0
06/27/2005,24.695,25.69,24.5,25.5,0.73,+2.95%,338240,0
06/20/2005,24.78,25.065,24.25,24.77,-0.13,-0.52%,613560,0
06/13/2005,24.375,25.475,24.375,24.9,0.39,+1.59%,245920,0
06/06/2005,24.715,25.32,23.975,24.51,-0.165,-0.67%,199800,0
05/30/2005,25.495,25.495,24.5,24.675,-0.905,-3.54%,239900,0
05/23/2005,25.465,25.955,24.93,25.58,0.12,+0.47%,198240,0
05/16/2005,24.685,26.305,24.585,25.46,0.795,+3.22%,217079,0
05/09/2005,25.535,25.745,24.505,24.665,-0.835,-3.27%,223200,0
05/02/2005,24.15,25.53,24.09,25.5,1.385,+5.74%,237200,0
04/25/2005,24.655,24.935,23.5,24.115,-0.56,-2.27%,277839,0
04/18/2005,24.25,25.51,23.845,24.675,0.18,+0.73%,310360,0
04/11/2005,26.44,26.685,24.35,24.495,-1.885,-7.15%,375279,0
04/04/2005,26.56,27.435,26.2,26.38,-0.12,-0.45%,224440,0
03/28/2005,25.025,26.6,24.805,26.5,1.555,+6.23%,349360,0
03/21/2005,25.65,25.905,24.66,24.945,-0.64,-2.50%,175800,0
03/14/2005,25.675,26.4,25.265,25.585,-0.19,-0.74%,223160,0
03/07/2005,26.35,26.63,25.43,25.775,-0.635,-2.40%,168079,0
02/28/2005,25.875,26.675,25.355,26.41,0.455,+1.75%,193800,0
02/21/2005,24.825,25.955,24.45,25.955,1.005,+4.03%,210150,0
02/14/2005,24.75,25.23,24.47,24.95,0.105,+0.42%,204439,0
02/07/2005,25.325,25.325,24.1,24.845,-0.23,-0.92%,172880,0
01/31/2005,23.825,25.1,23.825,25.075,1.3,+5.47%,171880,0
01/24/2005,24.3,24.425,23.64,23.775,-0.525,-2.16%,138480,0
01/17/2005,24.4,24.98,24,24.3,-0.195,-0.80%,166300,0
01/10/2005,24.375,25.24,23.9,24.495,-0.005,-0.02%,223919,0
01/03/2005,26.475,27.445,24.395,24.5,-1.89,-7.16%,254600,0
12/27/2004,26.875,27.11,26.365,26.39,-0.545,-2.02%,112160,0
12/20/2004,26.375,27.445,26.12,26.935,0.685,+2.61%,167100,0
12/13/2004,26,26.92,25.925,26.25,0.35,+1.35%,202560,0
12/06/2004,26.255,26.255,25.125,25.9,-0.355,-1.35%,265120,0
11/29/2004,25.655,26.96,25.5,26.255,0.7,+2.74%,208200,0
11/22/2004,24.75,25.77,24.75,25.555,0.68,+2.73%,150950,0
11/15/2004,25,25.47,24.825,24.875,-0.125,-0.50%,176000,0
11/08/2004,24.8,25.025,24.01,25,0.185,+0.75%,179159,0
11/01/2004,23.5,24.985,23.3,24.815,1.355,+5.78%,212200,0
10/25/2004,22.9,24.005,22.81,23.46,0.455,+1.98%,206360,0
10/18/2004,22.875,23.875,22.755,23.005,0.005,+0.02%,250399,0
10/11/2004,22.505,23.54,22.25,23,0.5,+2.22%,240800,0
10/04/2004,22.625,23.155,22.3,22.5,-0.3,-1.32%,202320,0
09/27/2004,22.25,22.8,21.665,22.8,0.385,+1.72%,211719,0
09/20/2004,22.6,23.275,22.31,22.415,-0.35,-1.54%,126240,0
09/13/2004,22.8,23.15,22.6,22.765,-0.085,-0.37%,135440,0
09/06/2004,22.95,23.425,22.515,22.85,-0.1,-0.44%,192300,0
08/30/2004,22.65,23.45,22.175,22.95,0.22,+0.97%,150480,0
08/23/2004,22.34,22.85,21.975,22.73,0.54,+2.43%,187159,0
08/16/2004,20.905,22.225,20.885,22.19,1.235,+5.89%,163200,0
08/09/2004,20.48,21.48,20.455,20.955,0.48,+2.34%,177400,0
08/02/2004,21.055,21.63,20.475,20.475,-0.68,-3.21%,206639,0
07/26/2004,21.31,21.365,20.775,21.155,-0.055,-0.26%,335759,0
07/19/2004,21.4,22.43,21.175,21.21,0.03,+0.14%,326920,0
07/12/2004,21.1,21.69,20.825,21.18,0.085,+0.40%,190600,0
07/05/2004,21.575,21.66,20.875,21.095,-0.46,-2.13%,168950,0
06/28/2004,21.405,22.035,21.23,21.555,0.2,+0.94%,235760,0
06/21/2004,21.45,22.1,21.275,21.355,-0.175,-0.81%,675120,0
06/14/2004,20.5,21.58,20.475,21.53,1.095,+5.36%,249599,0
06/07/2004,20.35,20.85,20.3,20.435,0.045,+0.22%,237199,0
05/31/2004,20.175,20.63,20.05,20.39,0.065,+0.32%,182450,0
05/24/2004,19.7,20.46,19.7,20.325,0.7,+3.57%,197959,0
05/17/2004,19.125,19.825,18.8,19.625,0.4,+2.08%,174759,0
05/10/2004,19.625,19.675,18.85,19.225,-0.435,-2.21%,162320,0
05/03/2004,19.55,20.27,19.51,19.66,0.01,+0.05%,189120,0
04/26/2004,20.5,20.775,19.175,19.65,-0.955,-4.63%,217800,0
04/19/2004,20.1,21.29,20,20.605,0.535,+2.67%,190320,0
04/12/2004,19.76,20.39,19.25,20.07,0.36,+1.83%,112560,0
04/05/2004,19.625,20,19.575,19.71,0.12,+0.61%,119300,0
03/29/2004,18.875,19.59,18.87,19.59,0.78,+4.15%,148800,0
03/22/2004,19.125,19.275,18.355,18.81,-0.385,-2.01%,191800,0
03/15/2004,19.225,19.45,18.625,19.195,-0.005,-0.03%,155600,0
03/08/2004,20.24,20.34,19.125,19.2,-1.025,-5.07%,131480,0
03/01/2004,20.325,20.535,20.025,20.225,0,0.00%,118000,0
02/23/2004,20.125,20.51,19.75,20.225,0.075,+0.37%,146520,0
02/16/2004,20.39,20.6,20,20.15,-0.115,-0.57%,132250,0
02/09/2004,20.125,21,20.125,20.265,0.255,+1.27%,112960,0
02/02/2004,20.05,20.15,19.58,20.01,-0.025,-0.12%,99960,0
01/26/2004,19.94,20.4,19.75,20.035,0.125,+0.63%,119800,0
01/19/2004,19.8,20.53,19.77,19.91,0.06,+0.30%,212000,0
01/12/2004,19.95,20.275,19.505,19.85,-0.15,-0.75%,143040,0
01/05/2004,19.28,20.125,19.23,20,0.72,+3.73%,265760,0
12/29/2003,19.5,19.74,19.15,19.28,-0.105,-0.54%,182250,0
12/22/2003,19.065,19.385,19.065,19.385,0.27,+1.41%,120400,0
12/15/2003,18.65,19.115,18.415,19.115,0.72,+3.91%,277800,0
12/08/2003,18.325,18.5,17.955,18.395,-0.005,-0.03%,280040,0
12/01/2003,17.5,18.525,17.45,18.4,0.945,+5.41%,377519,0
11/24/2003,17.52,17.535,17.25,17.455,-0.06,-0.34%,166050,0
11/17/2003,17.99,18.175,17.37,17.515,-0.61,-3.37%,153840,0
11/10/2003,18.2,18.3,17.875,18.125,-0.125,-0.68%,92360,0
11/03/2003,17.9,18.59,17.69,18.25,0.35,+1.96%,220520,0
10/27/2003,17.975,18.025,17.8,17.9,-0.11,-0.61%,114280,0
10/20/2003,18.65,18.65,17.93,18.01,-0.64,-3.43%,150200,0
10/13/2003,19.49,19.9,18.375,18.65,-0.825,-4.24%,209400,0
10/06/2003,19.45,19.72,18.975,19.475,-0.025,-0.13%,115600,0
09/29/2003,17.955,19.51,17.955,19.5,1.645,+9.21%,125760,0
09/22/2003,18.805,19.095,17.855,17.855,-0.945,-5.03%,199600,0
09/15/2003,19.475,19.5,18.62,18.8,-0.65,-3.34%,124320,0
09/08/2003,19.3,19.725,18.8,19.45,0.235,+1.22%,95760,0
09/01/2003,19.5,19.85,18.95,19.215,-0.365,-1.86%,101200,0
08/25/2003,18.975,19.6,18.625,19.58,0.63,+3.32%,77200,0
08/18/2003,19.05,19.55,18.9,18.95,-0.05,-0.26%,131720,0
08/11/2003,18.325,19,18,19,0.625,+3.40%,80800,0
08/04/2003,18.35,18.57,17.8,18.375,-0.2,-1.08%,91000,0
07/28/2003,18.625,18.975,18.3,18.575,-0.05,-0.27%,148440,0
07/21/2003,18.35,18.875,18.29,18.625,0.275,+1.50%,149000,0
07/14/2003,18.3,18.95,18.075,18.35,0.125,+0.69%,145920,0
07/07/2003,18.225,18.65,18.15,18.225,0.025,+0.14%,103520,0
06/30/2003,17.55,18.295,17.55,18.2,0.65,+3.70%,121250,0
06/23/2003,17.55,17.75,17,17.55,0,0.00%,112360,0
06/16/2003,17.675,18.25,17.545,17.55,-0.125,-0.71%,139080,0
06/09/2003,17.91,18.05,17.6,17.675,-0.24,-1.34%,126440,0
06/02/2003,17.555,18.01,17.55,17.915,0.415,+2.37%,87880,0
05/26/2003,17.275,17.615,17.215,17.5,0.28,+1.63%,86150,0
05/19/2003,17.38,17.385,17.04,17.22,-0.18,-1.03%,139720,0
05/12/2003,17.575,17.595,17.35,17.4,-0.265,-1.50%,133680,0
05/05/2003,17.05,17.665,17.05,17.665,0.6,+3.52%,178800,0
04/28/2003,16.155,17.355,16.1,17.065,0.86,+5.31%,234040,0
04/21/2003,15.775,16.915,15.775,16.205,0.555,+3.55%,189640,0
04/14/2003,15.5,16.06,15.46,15.65,0.2,+1.29%,153400,0
04/07/2003,16,16.485,15.325,15.45,-0.475,-2.98%,104480,0
03/31/2003,16.175,16.5,15.505,15.925,-0.275,-1.70%,155280,0
03/24/2003,16.425,16.475,15.83,16.2,-0.31,-1.88%,110040,0
03/17/2003,15.2,16.51,15,16.51,1.335,+8.80%,155400,0
03/10/2003,15.19,15.25,14.76,15.175,0.01,+0.07%,242479,0
03/03/2003,15.135,15.325,14.725,15.165,0.015,+0.10%,162800,0
02/24/2003,15.035,15.175,14.575,15.15,0.115,+0.76%,153680,0
02/17/2003,14.675,15.115,14.51,15.035,0.36,+2.45%,269200,0
02/10/2003,13.665,14.935,13.255,14.675,1.05,+7.71%,156599,0
02/03/2003,14.315,14.375,13.62,13.625,-0.715,-4.99%,97880,0
01/27/2003,14.465,14.57,13.88,14.34,-0.225,-1.54%,89920,0
01/20/2003,15.125,15.145,14.465,14.565,-0.56,-3.70%,76450,0
01/13/2003,15.325,15.51,14.9,15.125,-0.175,-1.14%,94240,0
01/06/2003,15.65,15.745,15.125,15.3,-0.2,-1.29%,97680,0
12/30/2002,15.415,15.665,15.225,15.5,0.125,+0.81%,128250,0
12/23/2002,16.25,16.505,15,15.375,-1.125,-6.82%,279350,0
12/16/2002,15.05,16.5,15.05,16.5,1.325,+8.73%,354359,0
12/09/2002,15.5,15.65,14.885,15.175,-0.42,-2.69%,96680,0
12/02/2002,15.055,15.75,15.04,15.595,0.655,+4.38%,111880,0
11/25/2002,14.375,15.175,14.3,14.94,0.47,+3.25%,113000,0
11/18/2002,14.44,14.64,14.155,14.47,0.12,+0.84%,106760,0
11/11/2002,14.09,14.6,14,14.35,0.25,+1.77%,97080,0
11/04/2002,14.025,14.5,14,14.1,0.075,+0.53%,101280,0
10/28/2002,13.945,14.045,13.67,14.025,0.05,+0.36%,104760,0
10/21/2002,13,14.05,12.945,13.975,0.9,+6.88%,191760,0
10/14/2002,13.17,13.32,12.7,13.075,-0.06,-0.46%,196440,0
10/07/2002,12.875,13.37,12.42,13.135,0.195,+1.51%,118720,0
09/30/2002,13.475,13.785,12.9,12.94,-0.555,-4.11%,228560,0
09/23/2002,14.51,14.51,13.425,13.495,-1.095,-7.51%,188520,0
09/16/2002,15.19,15.25,14.45,14.59,-0.61,-4.01%,160840,0
09/09/2002,15.39,15.82,15.025,15.2,-0.14,-0.91%,76600,0
09/02/2002,16,16.075,15.125,15.34,-0.71,-4.42%,145600,0
08/26/2002,15.67,16.15,15.4,16.05,0.33,+2.10%,130800,0
08/19/2002,15.575,16,15.4,15.72,0.145,+0.93%,108440,0
08/12/2002,15.35,15.635,14.625,15.575,0.2,+1.30%,57200,0
08/05/2002,14.695,15.465,14.3,15.375,0.675,+4.59%,98880,0
07/29/2002,15.09,15.485,14.605,14.7,0.625,+4.44%,163760,0
07/22/2002,13.75,14.21,13.3,14.075,0.125,+0.90%,203240,0
07/15/2002,14.625,14.63,13.3,13.95,-0.725,-4.94%,185320,0
07/08/2002,15.9,15.9,14.5,14.675,-0.56,-3.68%,158240,0
07/01/2002,15.56,16.3,15.205,15.235,-0.14,-0.91%,247000,0
06/24/2002,17.045,17.045,15.375,15.375,-2.025,-11.64%,655200,0
06/17/2002,17.09,17.75,17.09,17.4,0.435,+2.56%,129360,0
06/10/2002,18.325,18.415,16.485,16.965,-1.385,-7.55%,193279,0
06/03/2002,18.69,18.7,17.745,18.35,-0.34,-1.82%,194440,0
05/27/2002,18,18.925,17.66,18.69,0.635,+3.52%,198700,0
05/20/2002,18.375,18.475,17.745,18.055,-0.505,-2.72%,184399,0
05/13/2002,18.535,18.915,18.22,18.56,0.235,+1.28%,207920,0
05/06/2002,18.695,18.85,18.245,18.325,-0.445,-2.37%,117520,0
04/29/2002,18.17,19.37,18.025,18.77,0.575,+3.16%,156760,0
04/22/2002,17.935,18.45,17.56,18.195,0.26,+1.45%,187720,0
04/15/2002,18.7,19,17.9,17.935,-0.825,-4.40%,131360,0
04/08/2002,17.8,18.775,17.64,18.76,0.96,+5.39%,200680,0
04/01/2002,17.5,17.925,17.28,17.8,0.275,+1.57%,165800,0
03/25/2002,16.79,17.595,16.65,17.525,0.845,+5.07%,186049,0
03/18/2002,17,17.275,16.6,16.68,-0.27,-1.59%,218080,0
03/11/2002,17.15,17.15,16.56,16.95,-0.29,-1.68%,177839,0
03/04/2002,17.325,17.5,16.95,17.24,-0.05,-0.29%,303680,0
02/25/2002,16.85,17.56,16.7,17.29,0.375,+2.22%,182920,0
02/18/2002,16.775,17.125,16.625,16.915,0.02,+0.12%,248749,0
02/11/2002,16.5,17.07,16.2,16.895,0.32,+1.93%,239959,0
02/04/2002,15.975,16.575,15.67,16.575,0.6,+3.76%,143080,0
01/28/2002,15.315,16.315,15.125,15.975,0.71,+4.65%,242400,0
01/21/2002,14.975,15.4,14.925,15.265,0.31,+2.07%,487749,0
01/14/2002,15.25,15.25,14.875,14.955,-0.24,-1.58%,462280,0
01/07/2002,17.15,17.64,14.945,15.195,-2.17,-12.50%,618720,0
12/31/2001,17,17.71,16.85,17.365,0.4,+2.36%,212499,0
12/24/2001,17.09,17.45,16.965,16.965,-0.185,-1.08%,67950,0
12/17/2001,16.3,17.2,16.29,17.15,0.9,+5.54%,177000,0
12/10/2001,16.91,17.125,16.22,16.25,-0.75,-4.41%,233520,0
12/03/2001,16.4,17.165,16.225,17,0.6,+3.66%,232600,0
11/26/2001,16.41,16.575,15.85,16.4,-0.05,-0.30%,190600,0
11/19/2001,16.1,16.5,15.95,16.45,0.265,+1.64%,289650,0
11/12/2001,15.3,16.55,15.225,16.185,0.695,+4.49%,125759,0
11/05/2001,15.39,16.15,15.34,15.49,0.1,+0.65%,135120,0
10/29/2001,15.01,15.635,14.96,15.39,0.4,+2.67%,110360,0
10/22/2001,14.8,15.245,14.665,14.99,0.49,+3.38%,157240,0
10/15/2001,16.95,17.37,13.55,14.5,-2.51,-14.76%,564920,0
10/08/2001,16.375,17.225,15.76,17.01,0.685,+4.20%,99400,0
10/01/2001,15.9,16.5,15.26,16.325,0.425,+2.67%,152680,0
09/24/2001,15.13,16.25,15.1,15.9,0.87,+5.79%,183840,0
09/17/2001,17.375,17.375,14.25,15.03,-2.47,-14.11%,164640,0
09/10/2001,17.61,17.63,17.3,17.5,-0.2,-1.13%,86200,0
09/03/2001,17.895,18.35,17.1,17.7,-0.195,-1.09%,208850,0
08/27/2001,17.92,18.5,17.62,17.895,0.025,+0.14%,150120,0
08/20/2001,17.585,18.125,17.2,17.87,0.285,+1.62%,160799,0
08/13/2001,16.765,17.675,16.6,17.585,0.86,+5.14%,124720,0
08/06/2001,16.655,16.81,16.405,16.725,-0.025,-0.15%,102520,0
07/30/2001,16.57,16.775,16.1,16.75,0.18,+1.09%,98200,0
07/23/2001,16.765,17.05,16.125,16.57,0.105,+0.64%,179480,0
07/16/2001,15.73,16.795,15.73,16.465,0.61,+3.85%,91080,0
07/09/2001,15.7,16.095,15.25,15.855,0.18,+1.15%,172080,0
07/02/2001,16.325,16.395,15.625,15.675,-0.54,-3.33%,113250,0
06/25/2001,16.76,16.905,15.91,16.215,-0.485,-2.90%,196559,0
06/18/2001,17.25,18,16.54,16.7,-0.35,-2.05%,230000,0
06/11/2001,17.425,17.575,16.725,17.05,-0.375,-2.15%,120600,0
06/04/2001,16.55,17.7,16.45,17.425,0.795,+4.78%,102160,0
05/28/2001,17.2,17.2,16.375,16.63,-0.575,-3.34%,145650,0
05/21/2001,17.725,18.495,16.8,17.205,-0.52,-2.93%,159240,0
05/14/2001,17.34,18.605,17.075,17.725,0.39,+2.25%,265920,0
05/07/2001,16.6,17.94,16.25,17.335,0.735,+4.43%,227520,0
04/30/2001,15.8,16.75,15.5,16.6,0.65,+4.08%,165040,0
04/23/2001,15.825,16.4,15.515,15.95,0,0.00%,326360,0
04/16/2001,15.2,16.255,15.175,15.95,0.65,+4.25%,160639,0
04/09/2001,15.325,15.7,15.055,15.3,0.025,+0.16%,98200,0
04/02/2001,15.235,15.5,14.625,15.275,0.04,+0.26%,76280,0
03/26/2001,14.665,15.45,14.44,15.235,0.445,+3.01%,143560,0
03/19/2001,15.075,15.5,14.255,14.79,0.19,+1.30%,314600,0
03/12/2001,15.325,15.8,14.6,14.6,-0.8,-5.19%,345679,0
03/05/2001,14.56,15.675,14.56,15.4,0.84,+5.77%,167280,0
02/26/2001,14.685,15.115,14.225,14.56,-0.13,-0.88%,192640,0
02/19/2001,14.305,15,14.255,14.69,0.39,+2.73%,160750,0
02/12/2001,14.335,14.78,14.24,14.3,0.05,+0.35%,148120,0
02/05/2001,14.325,14.8,14.11,14.25,-0.105,-0.73%,141480,0
01/29/2001,14.4,15.165,14.225,14.355,0.075,+0.53%,253239,0
01/22/2001,14.125,14.845,14,14.28,0.185,+1.31%,132960,0
01/15/2001,14.69,14.815,14.03,14.095,-0.655,-4.44%,204900,0
01/08/2001,13.845,14.78,13.22,14.75,0.905,+6.54%,239359,0
01/01/2001,14.69,14.69,13.625,13.845,-0.845,-5.75%,187750,0
12/25/2000,14.19,15.065,13.94,14.69,0.5,+3.52%,144550,0
12/18/2000,13.53,14.19,13.5,14.19,0.66,+4.88%,215919,0
12/11/2000,12.625,13.78,12.565,13.53,0.81,+6.37%,197359,0
12/04/2000,12.565,12.94,12.5,12.72,0.155,+1.23%,171800,0
11/27/2000,12.44,12.78,12.125,12.565,0.19,+1.54%,121080,0
11/20/2000,12.25,12.53,11.565,12.375,0.125,+1.02%,124700,0
11/13/2000,11.125,12.5,11.125,12.25,1.125,+10.11%,295600,0
11/06/2000,10.405,11.565,10.345,11.125,0.685,+6.56%,615040,0
10/30/2000,10.125,10.47,9.94,10.44,0.285,+2.81%,330680,0
10/23/2000,9.94,10.22,9.75,10.155,0.215,+2.16%,260760,0
10/16/2000,11.625,11.625,9.69,9.94,-1.685,-14.49%,399160,0
10/09/2000,11.03,11.625,10.72,11.625,0.47,+4.21%,196240,0
10/02/2000,12.095,12.28,11.155,11.155,-0.815,-6.81%,179319,0
09/25/2000,11.375,12.095,11.25,11.97,0.47,+4.09%,178160,0
09/18/2000,12.19,12.19,10.94,11.5,-0.815,-6.62%,210640,0
09/11/2000,12.28,12.69,12.065,12.315,0.16,+1.32%,166320,0
09/04/2000,11.905,12.315,11.53,12.155,0.375,+3.18%,206100,0
08/28/2000,11.94,11.97,11.44,11.78,0.125,+1.07%,218400,0
08/21/2000,12.155,12.28,11.125,11.655,-0.44,-3.64%,232920,0
08/14/2000,12.875,12.94,11.97,12.095,-0.72,-5.62%,130120,0
08/07/2000,12.405,13.095,12.345,12.815,0.41,+3.31%,110840,0
07/31/2000,12.155,12.595,12.155,12.405,0.25,+2.06%,145640,0
07/24/2000,12.155,12.69,12.125,12.155,0,0.00%,358680,0
07/17/2000,14.19,14.5,11.69,12.155,-2.16,-15.09%,274520,0
07/10/2000,14.44,15,14,14.315,-0.125,-0.87%,125360,0
07/03/2000,13.625,14.845,13.625,14.44,0.94,+6.96%,149250,0
06/26/2000,13.75,14.655,13.5,13.5,-0.565,-4.02%,249720,0
06/19/2000,14.125,14.47,13.875,14.065,-0.03,-0.21%,183000,0
06/12/2000,13.53,14.125,13.47,14.095,0.47,+3.45%,202840,0
06/05/2000,13.75,13.75,13.25,13.625,-0.125,-0.91%,80120,0
05/29/2000,13.375,13.75,13.25,13.75,0.31,+2.31%,145400,0
05/22/2000,13.72,13.75,13.25,13.44,-0.28,-2.04%,130480,0
05/15/2000,13.595,13.75,13.28,13.72,0.065,+0.48%,120040,0
05/08/2000,13.625,13.75,12.875,13.655,0.03,+0.22%,127680,0
05/01/2000,14,14,13.125,13.625,-0.625,-4.39%,114960,0
04/24/2000,12.94,14.25,12.875,14.25,1.31,+10.12%,202440,0
04/17/2000,12.065,12.94,11.69,12.94,0.845,+6.99%,113100,0
04/10/2000,12.69,13.22,11.875,12.095,-0.655,-5.14%,109160,0
04/03/2000,13.44,13.44,12.125,12.75,-0.595,-4.46%,191320,0
03/27/2000,12.625,13.815,12.125,13.345,0.5,+3.89%,157560,0
03/20/2000,12.25,13.47,12,12.845,0.53,+4.30%,161320,0
03/13/2000,11.25,12.5,10.905,12.315,1,+8.84%,386280,0
03/06/2000,12.375,12.375,10.065,11.315,-1.09,-8.79%,245120,0
02/28/2000,11.625,12.72,11.065,12.405,0.75,+6.44%,323680,0
02/21/2000,11.75,12.19,11.375,11.655,-0.125,-1.06%,391950,0
02/14/2000,11.315,12.095,10.75,11.78,0.655,+5.89%,267960,0
02/07/2000,11.405,12,11.03,11.125,-0.44,-3.80%,119160,0
01/31/2000,11.25,13,11,11.565,0.375,+3.35%,265160,0
01/24/2000,12.69,13.065,11.19,11.19,-1.56,-12.24%,244000,0
01/17/2000,13.125,13.42,12.565,12.75,-0.625,-4.67%,103900,0
01/10/2000,12.905,13.69,12.75,13.375,0.345,+2.65%,165520,0
01/03/2000,12.565,14.315,11.69,13.03,0.465,+3.70%,258360,0
12/27/1999,12.97,13.125,12.345,12.565,-0.405,-3.12%,154400,0
12/20/1999,13.875,13.94,12.69,12.97,-1.03,-7.36%,136950,0
12/13/1999,13.125,14.125,12.875,14,0.845,+6.42%,247479,0
12/06/1999,13.78,14.065,12.625,13.155,-0.69,-4.98%,148400,0
11/29/1999,13.5,14.125,13.095,13.845,0.405,+3.01%,196080,0
11/22/1999,13.75,14.065,13.03,13.44,-0.53,-3.79%,176950,0
11/15/1999,13.47,14.625,13.375,13.97,0.47,+3.48%,137800,0
11/08/1999,13.97,13.97,13.25,13.5,-0.44,-3.16%,67840,0
11/01/1999,13.375,14.315,13.375,13.94,0.5,+3.72%,147840,0
10/25/1999,12.595,13.44,12,13.44,0.815,+6.46%,200720,0
10/18/1999,13.065,13.595,12.03,12.625,-0.44,-3.37%,172479,0
10/11/1999,12.875,13.19,12.815,13.065,0.19,+1.48%,90840,0
10/04/1999,12.75,13,11.94,12.875,0.095,+0.74%,122400,0
09/27/1999,11.44,13.375,11.44,12.78,1.405,+12.35%,166480,0
09/20/1999,12.655,12.845,11.25,11.375,-1.25,-9.90%,256880,0
09/13/1999,13.375,13.375,11.72,12.625,-0.75,-5.61%,174640,0
09/06/1999,13.19,13.565,13.19,13.375,0.185,+1.40%,87400,0
08/30/1999,12.595,13.19,12.5,13.19,0.625,+4.97%,148440,0
08/23/1999,13.155,13.155,12.405,12.565,-0.53,-4.05%,173760,0
08/16/1999,13.845,14,12.97,13.095,-0.72,-5.21%,227840,0
08/09/1999,14.125,14.315,13.405,13.815,-0.25,-1.78%,120120,0
08/02/1999,14.405,14.5,13.625,14.065,-0.405,-2.80%,103320,0
07/26/1999,14.69,14.78,14,14.47,-0.22,-1.50%,203040,0
07/19/1999,14.78,15,13.315,14.69,-0.125,-0.84%,167680,0
07/12/1999,14.25,15,14.19,14.815,0.75,+5.33%,88960,0
07/05/1999,15.065,15.065,13.5,14.065,-1.215,-7.95%,152100,0
06/28/1999,14.03,15.44,14.03,15.28,1.185,+8.41%,219280,0
06/21/1999,15,15,13.94,14.095,-0.875,-5.85%,148440,0
06/14/1999,14.94,15.25,14.5,14.97,0.155,+1.05%,116200,0
06/07/1999,13.845,15.19,13.69,14.815,1.095,+7.98%,70400,0
05/31/1999,13.815,14.845,13.625,13.72,-0.03,-0.22%,181300,0
05/24/1999,14.72,14.72,13.72,13.75,-0.94,-6.40%,179999,0
05/17/1999,14.625,15.75,14.44,14.69,-0.06,-0.41%,167440,0
05/10/1999,13.03,14.815,13.03,14.75,1.935,+15.10%,143120,0
05/03/1999,13.69,14.375,12.75,12.815,-1.185,-8.46%,121320,0
04/26/1999,13.565,14.5,12.815,14,0.5,+3.70%,101680,0
04/19/1999,14.25,15,12.78,13.5,-0.845,-5.89%,141760,0
04/12/1999,12.69,14.69,12.375,14.345,1.53,+11.94%,128320,0
04/05/1999,12.875,13.125,11.905,12.815,0,0.00%,221480,0
03/29/1999,12.97,13.5,12.5,12.815,-0.09,-0.70%,111300,0
03/22/1999,13.75,13.75,12.44,12.905,-0.845,-6.15%,97720,0
03/15/1999,14.44,14.625,13.69,13.75,-0.815,-5.60%,122040,0
03/08/1999,13.69,14.815,13.375,14.565,0.94,+6.90%,132760,0
03/01/1999,13.815,14.125,13.19,13.625,-0.065,-0.47%,86920,0
02/22/1999,13.19,14.44,13.065,13.69,0.875,+6.83%,119400,0
02/15/1999,12.155,13.065,11.565,12.815,0.785,+6.53%,216000,0
02/08/1999,13.5,13.815,12,12.03,-1.595,-11.71%,119360,0
02/01/1999,13.655,14.47,13.22,13.625,-0.03,-0.22%,123440,0
01/25/1999,13.565,13.875,13.5,13.655,0.03,+0.22%,154240,0
01/18/1999,13.345,13.845,12.78,13.625,0.185,+1.38%,102100,0
01/11/1999,13.375,13.44,12,13.44,0.065,+0.49%,192640,0
01/04/1999,13.815,14.375,13.03,13.375,-0.655,-4.67%,135800,0
12/28/1998,14,14.19,13.53,14.03,0.06,+0.43%,162950,0
12/21/1998,14.19,15.065,13.845,13.97,-0.095,-0.68%,113750,0
12/14/1998,14,14.19,12.5,14.065,0.125,+0.90%,167120,0
12/07/1998,14.405,15.065,13.75,13.94,-0.5,-3.46%,141240,0
11/30/1998,14.095,14.47,13.815,14.44,0.315,+2.23%,203160,0
11/23/1998,13.75,14.565,13.75,14.125,0.375,+2.73%,129500,0
11/16/1998,13.75,13.75,13.375,13.75,0.03,+0.22%,166720,0
11/09/1998,13.815,14,13.625,13.72,-0.22,-1.58%,142400,0
11/02/1998,13.5,14.5,13.5,13.94,0.565,+4.22%,230760,0
10/26/1998,14,14.875,12.6875,13.375,-1.625,-10.83%,204759,0
10/19/1998,11.75,15,11.75,15,3.375,+29.03%,167560,0
10/12/1998,10.5,11.75,10.4375,11.625,1.3125,+12.73%,243200,0
10/05/1998,11,11.25,9.8438,10.3125,-0.6875,-6.25%,231880,0
09/28/1998,12,12.1875,10.25,11,-1,-8.33%,419800,0
09/21/1998,13.5,14.0313,11.0625,12,-1.9375,-13.90%,409320,0
09/14/1998,13.3438,14,12.8125,13.9375,0.5312,+3.96%,144720,0
09/07/1998,14.3438,14.6563,13.1875,13.4063,-0.875,-6.13%,77150,0
08/31/1998,14,14.7188,13.1563,14.2813,0.3125,+2.24%,147120,0
08/24/1998,15.0625,15.7813,13.75,13.9688,-1.0468,-6.97%,112600,0
08/17/1998,15.0313,15.7188,14.875,15.0156,-0.0157,-0.10%,186879,0
08/10/1998,14.9688,15.0313,14.2969,15.0313,0.0782,+0.52%,124080,0
08/03/1998,15.4063,15.4063,14.7031,14.9531,-0.4375,-2.84%,165200,0
07/27/1998,16.3125,16.3281,15,15.3906,-0.9532,-5.83%,395120,0
07/20/1998,16.3125,16.5,16.3125,16.3438,0.0157,+0.10%,382320,0
07/13/1998,16.25,16.7188,16.1406,16.3281,0.25,+1.55%,817360,0
07/06/1998,15.75,16.125,15.6875,16.0781,0.4062,+2.59%,95280,0
06/29/1998,15.0469,15.9688,15.0469,15.6719,0.625,+4.15%,131600,0
06/22/1998,14.6719,15.25,14.6719,15.0469,0.3438,+2.34%,96640,0
06/15/1998,15,15.1094,14.625,14.7031,-0.4219,-2.79%,222480,0
06/08/1998,15.8828,15.9375,14.8125,15.125,-0.7344,-4.63%,121280,0
06/01/1998,16.25,16.4688,15.5938,15.8594,-0.3437,-2.12%,72080,0
05/25/1998,15.8906,16.4688,15.875,16.2031,0.375,+2.37%,215000,0
05/18/1998,16.25,16.4375,15.8281,15.8281,-0.4219,-2.60%,188880,0
05/11/1998,16,16.375,15.6875,16.25,0.5781,+3.69%,194640,0
05/04/1998,15.4063,15.7031,15.4063,15.6719,0.1719,+1.11%,101040,0
04/27/1998,14.5,15.8125,14.1875,15.5,0.9219,+6.32%,187600,0
04/20/1998,14.5,15.125,14,14.5781,-0.1094,-0.74%,207440,0
04/13/1998,14.875,15.1563,14.5781,14.6875,-0.2969,-1.98%,141520,0
04/06/1998,15.25,15.2969,14.75,14.9844,-0.2812,-1.84%,202800,0
03/30/1998,15,15.5,14.9531,15.2656,0.25,+1.66%,233280,0
03/23/1998,15.75,15.9063,15,15.0156,-0.7344,-4.66%,96000,0
03/16/1998,15.25,15.7813,15.1875,15.75,0.5,+3.28%,77440,0
03/09/1998,14.7656,15.4375,14.7656,15.25,0.4062,+2.74%,151520,0
03/02/1998,14.4375,15.1563,14.4375,14.8438,0.4219,+2.93%,158320,0
02/23/1998,14.625,14.6875,14.2656,14.4219,-0.0469,-0.32%,142960,0
02/16/1998,13.7813,14.4688,13.7813,14.4688,0.7344,+5.35%,137800,0
02/09/1998,13.6406,14.0781,13.3438,13.7344,0.0313,+0.23%,93040,0
02/02/1998,12.7656,13.9375,12.75,13.7031,0.9531,+7.48%,253040,0
01/26/1998,12.5,13.1875,12.3125,12.75,0.2812,+2.26%,245360,0
01/19/1998,12.3125,12.5625,11.9844,12.4688,0.1719,+1.40%,202100,0
01/12/1998,12.1719,12.4688,12.1719,12.2969,0,0.00%,224079,0
01/05/1998,13.75,13.75,12.2813,12.2969,-1.4844,-10.77%,193440,0
12/29/1997,13.2031,13.8906,13.1094,13.7813,0.5782,+4.38%,146800,0
12/22/1997,13.4844,13.5,13.1094,13.2031,-0.25,-1.86%,133400,0
12/15/1997,14.0469,14.1328,13.375,13.4531,-0.6407,-4.55%,105520,0
12/08/1997,14.6875,14.6875,13.8438,14.0938,-0.5937,-4.04%,90560,0
12/01/1997,14.25,14.7813,14.25,14.6875,0.4375,+3.07%,128640,0
11/24/1997,14.1406,14.25,14.0781,14.25,0.1406,+1.00%,32800,0
11/17/1997,13.25,14.3906,13.25,14.1094,0.9531,+7.24%,121120,0
11/10/1997,13.4375,13.5625,12.6094,13.1563,-0.3125,-2.32%,83840,0
11/03/1997,13.75,14.0625,13.4531,13.4688,-0.2656,-1.93%,129040,0
10/27/1997,14.1719,14.2188,13.3906,13.7344,-0.5,-3.51%,128080,0
10/20/1997,13.375,14.2344,13.375,14.2344,0.7031,+5.20%,159200,0
10/13/1997,14.2813,14.5,13.5,13.5313,-0.6562,-4.63%,100320,0
10/06/1997,14.0313,14.2813,13.9688,14.1875,0.1875,+1.34%,82160,0
09/29/1997,14.0625,14.25,13.8281,14,0.0156,+0.11%,97120,0
09/22/1997,14.0625,14.2813,13.8125,13.9844,-0.1406,-1.00%,97040,0
09/15/1997,13.9688,14.25,13.8125,14.125,0.125,+0.89%,101680,0
09/08/1997,13.9531,14.0313,13.5313,14,0.0312,+0.22%,193440,0
09/01/1997,14.0625,14.6094,13.9375,13.9688,-0.0937,-0.67%,180700,0
08/25/1997,13.4063,14.0625,13.3125,14.0625,0.6562,+4.89%,95920,0
08/18/1997,13.5938,13.625,13.125,13.4063,-0.2187,-1.61%,125680,0
08/11/1997,13.5625,13.9375,13.5625,13.625,0.0625,+0.46%,141280,0
08/04/1997,13.0625,13.9063,12.9375,13.5625,0.625,+4.83%,202400,0
07/28/1997,12.0625,13.0313,12,12.9375,0.9375,+7.81%,172000,0
07/21/1997,11.4063,12.0938,11.25,12,0.5625,+4.92%,226080,0
07/14/1997,11.4688,11.7188,11.2188,11.4375,-0.0313,-0.27%,89920,0
07/07/1997,11.375,11.5,11.125,11.4688,0.0938,+0.82%,86000,0
06/30/1997,11.0938,11.4688,11.0938,11.375,0.2812,+2.53%,104900,0
06/23/1997,10.9688,11.0938,10.7188,11.0938,0.1563,+1.43%,93840,0
06/16/1997,11,11.0313,10.8438,10.9375,-0.0625,-0.57%,111200,0
06/09/1997,11.3125,11.4375,10.6875,11,-0.375,-3.30%,77520,0
06/02/1997,11.125,11.4063,11.125,11.375,0.2812,+2.53%,173520,0
05/26/1997,10.8438,11.0938,10.75,11.0938,0.25,+2.31%,73900,0
05/19/1997,10.25,10.8438,10.25,10.8438,0.5938,+5.79%,105120,0
05/12/1997,10.25,10.5313,10.1875,10.25,0,0.00%,87280,0
05/05/1997,10.0625,10.4063,9.9375,10.25,0.1875,+1.86%,107600,0
04/28/1997,9.9688,10.1875,9.8125,10.0625,0.1562,+1.58%,206080,0
04/21/1997,9.375,10.0938,9.375,9.9063,0.5313,+5.67%,270479,0
04/14/1997,9.4063,9.4063,8.7813,9.375,0,0.00%,251759,0
04/07/1997,9.5313,9.5625,9.3438,9.375,-0.125,-1.32%,73520,0
03/31/1997,9.6563,9.6563,9.3125,9.5,-0.1563,-1.62%,107680,0
03/24/1997,9.9688,9.9688,9.6563,9.6563,-0.3437,-3.44%,168200,0
03/17/1997,9.5938,10.0313,9.375,10,0.4375,+4.58%,90560,0
03/10/1997,10,10.0313,9.4688,9.5625,-0.4375,-4.38%,87040,0
03/03/1997,9.9063,10.1563,9.9063,10,0.0625,+0.63%,145840,0
02/24/1997,9.5625,9.9375,9.5313,9.9375,0.3437,+3.58%,148320,0
02/17/1997,8.8438,9.7188,8.7188,9.5938,0.6563,+7.34%,294800,0
02/10/1997,8.75,9.1563,8.75,8.9375,0.1562,+1.78%,157760,0
02/03/1997,8.75,8.9688,8.6875,8.7813,0.4063,+4.85%,153040,0
01/27/1997,8.4688,8.4688,8.1875,8.375,-0.125,-1.47%,180000,0
01/20/1997,8.6875,8.7188,8.4063,8.5,-0.25,-2.86%,161040,0
01/13/1997,8.875,8.9063,8.625,8.75,-0.1563,-1.75%,155840,0
01/06/1997,8.75,9,8.75,8.9063,0.2188,+2.52%,115440,0
12/30/1996,8.4063,8.8438,8.4063,8.6875,0.1875,+2.21%,166500,0
12/23/1996,8.2813,8.5,8.25,8.5,0.2187,+2.64%,75000,0
12/16/1996,8.25,8.3438,8.1875,8.2813,0.0313,+0.38%,241360,0
12/09/1996,8.6563,8.75,8.2188,8.25,-0.4063,-4.69%,105440,0
12/02/1996,8.6563,8.9063,8.5625,8.6563,0.0313,+0.36%,99280,0
11/25/1996,8.5625,8.875,8.5625,8.625,0,0.00%,190799,0
11/18/1996,8.6875,9.0313,8.625,8.625,-0.0938,-1.08%,145680,0
11/11/1996,8.5313,8.8125,8.5313,8.7188,0.1563,+1.83%,104720,0
11/04/1996,8.1563,8.6875,8.1563,8.5625,0.4062,+4.98%,117920,0
10/28/1996,7.9375,8.1875,7.8438,8.1563,0.1875,+2.35%,87040,0
10/21/1996,7.9375,8.0313,7.625,7.9688,0.0313,+0.39%,98320,0
10/14/1996,8,8.1563,7.875,7.9375,-0.0938,-1.17%,81680,0
10/07/1996,8.1563,8.1875,7.8125,8.0313,-0.125,-1.53%,138880,0
09/30/1996,8.0625,8.4063,8.0313,8.1563,0.0938,+1.16%,118480,0
09/23/1996,8.125,8.1875,7.9063,8.0625,-0.0313,-0.39%,172560,0
09/16/1996,8.4063,8.5,8.0625,8.0938,-0.3125,-3.72%,91120,0
09/09/1996,8.75,8.8125,8.1875,8.4063,-0.3125,-3.58%,177840,0
09/02/1996,8.75,8.75,8.5938,8.7188,0,0.00%,51600,0
08/26/1996,8.75,8.8125,8.625,8.7188,0,0.00%,15600,0
08/19/1996,9.1563,9.2813,8.7188,8.7188,-0.4062,-4.45%,46720,0
08/12/1996,9,9.125,8.9375,9.125,0.125,+1.39%,33840,0
08/05/1996,8.5625,9.1563,8.5,9,0.4062,+4.73%,260640,0
07/29/1996,7.9375,8.6875,7.9375,8.5938,0.625,+7.84%,100960,0
07/22/1996,8.2188,8.2188,7.9375,7.9688,-0.25,-3.04%,110720,0
07/15/1996,8.25,8.3125,7.875,8.2188,-0.0937,-1.13%,131840,0
07/08/1996,8.5,8.5,8.125,8.3125,-0.1875,-2.21%,107040,0
07/01/1996,7.5938,8.8125,7.5938,8.5,0.9375,+12.40%,378200,0
06/24/1996,8,8,7.25,7.5625,-0.4063,-5.10%,242080,0
06/17/1996,9.0313,9.1563,7.875,7.9688,-1.9687,-19.81%,759280,0
06/10/1996,10.375,10.375,9.8438,9.9375,-0.4688,-4.50%,97920,0
06/03/1996,10.5625,10.5938,10.4063,10.4063,-0.1875,-1.77%,97200,0
05/27/1996,9.9688,10.5938,9.9688,10.5938,0.625,+6.27%,195300,0
05/20/1996,9.375,9.9688,9.375,9.9688,0.5625,+5.98%,200240,0
05/13/1996,9.5625,9.625,9.3438,9.4063,-0.1562,-1.63%,95840,0
05/06/1996,9.5938,9.6563,9.5,9.5625,-0.0313,-0.33%,273600,0
04/29/1996,9.3438,9.6563,9.1563,9.5938,0.2188,+2.33%,397920,0
04/22/1996,9.9375,9.9375,9.375,9.375,-0.5625,-5.66%,88640,0
04/15/1996,10.2813,10.3438,9.8125,9.9375,-0.3125,-3.05%,222320,0
04/08/1996,10.5938,10.75,10.125,10.25,-0.4063,-3.81%,344560,0
04/01/1996,10.375,10.7813,10.375,10.6563,0.2813,+2.71%,354500,0
03/25/1996,9.4063,10.4688,9.4063,10.375,0.9687,+10.30%,191600,0
03/18/1996,9.5313,9.5313,9.3125,9.4063,-0.0937,-0.99%,155200,0
03/11/1996,9.2813,9.7188,9.2813,9.5,0.2187,+2.36%,152880,0
03/04/1996,9.3438,9.4375,9.1875,9.2813,-0.0312,-0.34%,161280,0
02/26/1996,9.3438,9.4688,9.0625,9.3125,-0.0938,-1.00%,228000,0
02/19/1996,9.2188,9.4688,9.1875,9.4063,0.125,+1.35%,117700,0
02/12/1996,9.375,9.4063,9.2188,9.2813,-0.0625,-0.67%,86400,0
02/05/1996,9.3438,9.4063,9.2813,9.3438,-0.0312,-0.33%,54160,0
01/29/1996,9.2188,9.4063,9.1875,9.375,0.125,+1.35%,144480,0
01/22/1996,8.75,9.25,8.75,9.25,0.5,+5.71%,114720,0
01/15/1996,8.8125,8.9063,8.6875,8.75,-0.125,-1.41%,72800,0
01/08/1996,9.1875,9.1875,8.8125,8.875,-0.3438,-3.73%,60880,0
01/01/1996,9.2813,9.3125,9.0938,9.2188,-0.125,-1.34%,94300,0
12/25/1995,9,9.3438,9,9.3438,0.3438,+3.82%,131000,0
12/18/1995,9.0625,9.0625,8.7813,9,-0.0625,-0.69%,99920,0
12/11/1995,9.4063,9.4688,9.0313,9.0625,-0.3438,-3.65%,98240,0
12/04/1995,9.1563,9.5625,9.1563,9.4063,0.2813,+3.08%,127360,0
11/27/1995,8.7188,9.125,8.7188,9.125,0.375,+4.29%,68640,0
11/20/1995,8.8125,8.8125,8.5938,8.75,-0.0313,-0.36%,89400,0
11/13/1995,8.75,8.8125,8.6875,8.7813,0.0625,+0.72%,273040,0
11/06/1995,8.8438,8.875,8.7188,8.7188,-0.125,-1.41%,97200,0
10/30/1995,8.5,8.8438,8.5,8.8438,0.3438,+4.04%,205840,0
10/23/1995,8.375,8.5625,8.0625,8.5,0.1562,+1.87%,128560,0
10/16/1995,8.25,8.5313,8.25,8.3438,0.0938,+1.14%,43520,0
10/09/1995,7.9063,8.25,7.7813,8.25,0.3437,+4.35%,95040,0
10/02/1995,8.25,8.25,7.9063,7.9063,-0.375,-4.53%,55040,0
09/25/1995,8.4375,8.4688,8.2813,8.2813,-0.125,-1.49%,38000,0
09/18/1995,8.4375,8.5625,8.3438,8.4063,-0.0625,-0.74%,55040,0
09/11/1995,8.3438,8.4688,8.25,8.4688,0.125,+1.50%,46640,0
09/04/1995,7.9063,8.3438,7.9063,8.3438,0.375,+4.71%,103400,0
08/28/1995,8.125,8.1875,7.8438,7.9688,-0.125,-1.54%,70960,0
08/21/1995,8.125,8.25,8.0938,8.0938,-0.0312,-0.38%,112400,0
08/14/1995,8.1875,8.3438,8.0313,8.125,-0.0625,-0.76%,123360,0
08/07/1995,8.1563,8.2813,8.125,8.1875,0.0312,+0.38%,92480,0
07/31/1995,8.0313,8.3125,8.0313,8.1563,0.1875,+2.35%,85680,0
07/24/1995,7.8438,8.0625,7.8125,7.9688,0.1563,+2.00%,142560,0
07/17/1995,7.875,7.9375,7.75,7.8125,0,0.00%,32240,0
07/10/1995,7.9375,8,7.7813,7.8125,-0.1563,-1.96%,33360,0
07/03/1995,8.0313,8.125,7.9688,7.9688,-0.0625,-0.78%,65900,0
06/26/1995,7.8438,8.0313,7.7813,8.0313,0.1875,+2.39%,57040,0
06/19/1995,7.9063,7.9375,7.6875,7.8438,-0.0625,-0.79%,87440,0
06/12/1995,7.9688,8,7.8438,7.9063,-0.0312,-0.39%,63600,0
06/05/1995,7.6563,7.9688,7.6563,7.9375,0.25,+3.25%,118400,0
05/29/1995,7.6875,7.7188,7.625,7.6875,0,0.00%,56000,0
05/22/1995,7.5625,8,7.5625,7.6875,0.125,+1.65%,69200,0
05/15/1995,7.5938,7.5938,7.5,7.5625,-0.0313,-0.41%,33200,0
05/08/1995,7.625,7.6563,7.4375,7.5938,-0.0937,-1.22%,103360,0
05/01/1995,7.375,7.6875,7.375,7.6875,0.3125,+4.24%,100720,0
04/24/1995,7.4063,7.5625,7.2188,7.375,-0.0313,-0.42%,87840,0
04/17/1995,7.3438,7.5313,7.25,7.4063,0.0313,+0.42%,164160,0
04/10/1995,7,7.4063,6.9688,7.375,0.4062,+5.83%,80200,0
04/03/1995,7.125,7.125,6.9688,6.9688,-0.1875,-2.62%,30000,0
03/27/1995,7.25,7.3125,7.1563,7.1563,-0.0937,-1.29%,53840,0
03/20/1995,6.9688,7.3438,6.9688,7.25,0.2812,+4.04%,106080,0
03/13/1995,6.8438,7,6.8125,6.9688,0.125,+1.83%,36240,0
03/06/1995,6.9063,6.9063,6.5938,6.8438,-0.0937,-1.35%,73360,0
02/27/1995,7.1563,7.2813,6.9063,6.9375,-0.1875,-2.63%,99280,0
02/20/1995,6.9063,7.1563,6.8125,7.125,0.2187,+3.17%,103200,0
02/13/1995,6.625,6.9375,6.625,6.9063,0.25,+3.76%,67760,0
02/06/1995,6.5,6.8125,6.5,6.6563,0.2188,+3.40%,54720,0
01/30/1995,6.6563,6.6875,6.1563,6.4375,-0.25,-3.74%,146960,0
01/23/1995,6.625,6.7188,6.5313,6.6875,0.0937,+1.42%,22240,0
01/16/1995,6.4688,6.6875,6.4688,6.5938,0.125,+1.93%,100000,0
01/09/1995,6.7813,6.7813,6.3438,6.4688,-0.3437,-5.05%,80240,0
01/02/1995,7.125,7.1563,6.75,6.8125,-0.375,-5.22%,56800,0
12/26/1994,7.1875,7.2188,7.0938,7.1875,-0.0313,-0.43%,60000,0
12/19/1994,6.6563,7.25,6.625,7.2188,0.5625,+8.45%,87360,0
12/12/1994,6.2813,6.6875,6.2188,6.6563,0.375,+5.97%,68000,0
12/05/1994,6.5625,6.625,6.2188,6.2813,-0.125,-1.95%,110080,0
11/28/1994,6.7188,6.7188,6.3125,6.4063,-0.3437,-5.09%,108160,0
11/21/1994,6.9375,6.9375,6.6875,6.75,-0.1563,-2.26%,96200,0
11/14/1994,6.875,7.125,6.8438,6.9063,0,0.00%,149120,0
11/07/1994,6.9375,7.125,6.8438,6.9063,0,0.00%,111200,0
10/31/1994,6.8438,6.9688,6.7813,6.9063,0.0313,+0.46%,185040,0
10/24/1994,6.7813,6.875,6.75,6.875,0.125,+1.85%,82080,0
10/17/1994,6.8438,6.8438,6.75,6.75,-0.0938,-1.37%,99360,0
10/10/1994,6.7813,6.9375,6.7813,6.8438,0.0625,+0.92%,111600,0
10/03/1994,6.75,6.8125,6.6563,6.7813,0.0313,+0.46%,288960,0
09/26/1994,6.25,6.7813,6.2188,6.75,0.5,+8.00%,722000,0
09/19/1994,6.4063,6.4063,6.25,6.25,-0.0625,-0.99%,37520,0
09/12/1994,6,6.3125,5.75,6.3125,0.25,+4.12%,63920,0
09/05/1994,6.0938,6.0938,6,6.0625,0.125,+2.11%,25900,0
08/29/1994,5.5625,5.9375,5.5625,5.9375,0.3125,+5.56%,67680,0
08/22/1994,5.625,5.625,5.5313,5.625,0.0312,+0.56%,4640,0
08/15/1994,5.8438,5.875,5.5938,5.5938,-0.3125,-5.29%,23920,0
08/08/1994,6.0313,6.0313,5.9063,5.9063,-0.0937,-1.56%,11520,0
08/01/1994,6.0938,6.125,6,6,-0.0938,-1.54%,16400,0
07/25/1994,6.0938,6.1875,6.0938,6.0938,0,0.00%,17760,0
07/18/1994,5.8438,6.1875,5.8438,6.0938,0.25,+4.28%,16240,0
07/11/1994,5.9063,5.9375,5.8125,5.8438,-0.0312,-0.53%,18000,0
07/04/1994,5.7188,5.9688,5.7188,5.875,0.1562,+2.73%,18400,0
06/27/1994,5.8125,5.8125,5.6563,5.7188,-0.0937,-1.61%,25440,0
06/20/1994,6.1563,6.1563,5.8125,5.8125,-0.3438,-5.58%,22160,0
06/13/1994,6.125,6.2188,6.0313,6.1563,0,0.00%,23760,0
06/06/1994,6.4063,6.4063,6.0938,6.1563,-0.25,-3.90%,25280,0
05/30/1994,6,6.4063,6,6.4063,0.3125,+5.13%,96100,0
05/23/1994,5.875,6.125,5.8125,6.0938,0.25,+4.28%,85760,0
05/16/1994,5.7188,5.9063,5.7188,5.8438,0.1563,+2.75%,10480,0
05/09/1994,5.6875,6.125,5.5938,5.6875,0,0.00%,28800,0
05/02/1994,5.5313,5.7188,5.5,5.6875,0.0937,+1.68%,85680,0
04/25/1994,5.4688,5.6875,5.4688,5.5938,0.1875,+3.47%,18000,0
04/18/1994,5.4688,5.5,5.4063,5.4063,-0.0625,-1.14%,19760,0
04/11/1994,5.5938,5.625,5.4375,5.4688,-0.1562,-2.78%,17200,0
04/04/1994,5.5,5.6563,5.3125,5.625,0.2812,+5.26%,122960,0
03/28/1994,5.625,5.6563,5.3125,5.3438,-0.2812,-5.00%,72600,0
03/21/1994,5.6563,5.6563,5.625,5.625,-0.0625,-1.10%,64960,0
03/14/1994,5.5938,5.6875,5.5625,5.6875,0.0937,+1.68%,107600,0
03/07/1994,5.5625,5.6875,5.5625,5.5938,0.0313,+0.56%,17200,0
02/28/1994,5.3438,5.5938,5.3125,5.5625,0.2187,+4.09%,33920,0
02/21/1994,5.4375,5.4375,5.3125,5.3438,-0.0625,-1.16%,3700,0
02/14/1994,5.4063,5.5,5.3438,5.4063,0,0.00%,31920,0
02/07/1994,5.25,5.4375,5.25,5.4063,0.1563,+2.98%,10640,0
01/31/1994,5.0938,5.2813,5.0625,5.25,0.1875,+3.70%,20960,0
01/24/1994,5.1563,5.1875,5.0625,5.0625,0,0.00%,18480,0
01/17/1994,5.0938,5.25,5.0313,5.0625,-0.0313,-0.61%,36000,0
01/10/1994,5.0938,5.125,5.0313,5.0938,0,0.00%,16400,0
01/03/1994,5.125,5.1875,5.0938,5.0938,-0.0937,-1.81%,10640,0
12/27/1993,5.1563,5.1875,5.0938,5.1875,0,0.00%,4720,0
12/20/1993,5.0313,5.2188,5.0313,5.1875,0.1562,+3.10%,52900,0
12/13/1993,5.2813,5.2813,5.0313,5.0313,-0.25,-4.73%,111920,0
12/06/1993,5.2813,5.2813,5.2188,5.2813,0.0313,+0.60%,36560,0
11/29/1993,5.375,5.4063,5.25,5.25,-0.0625,-1.18%,9120,0
11/22/1993,5.3125,5.3125,5.1563,5.3125,-0.0625,-1.16%,29300,0
11/15/1993,5.3438,5.4375,5.2813,5.375,0.0625,+1.18%,36640,0
11/08/1993,5,5.3438,5,5.3125,0.3125,+6.25%,67840,0
11/01/1993,5.2813,5.375,4.9375,5,-0.2813,-5.33%,32400,0
10/25/1993,5.2813,5.5,5.25,5.2813,-0.0625,-1.17%,40400,0
10/18/1993,5.4375,5.4375,5.3125,5.3438,-0.0625,-1.16%,34240,0
10/11/1993,5.3438,5.5,5.3125,5.4063,0.0313,+0.58%,27760,0
10/04/1993,5.2188,5.4063,5.2188,5.375,0.125,+2.38%,69280,0
09/27/1993,4.875,5.3125,4.875,5.25,0.375,+7.69%,116639,0
09/20/1993,4.6875,4.9063,4.5625,4.875,0.1875,+4.00%,68800,0
09/13/1993,4.7188,4.8125,4.6875,4.6875,-0.0938,-1.96%,68880,0
09/06/1993,4.75,4.8438,4.75,4.7813,0.0313,+0.66%,37000,0
08/30/1993,4.75,4.7813,4.625,4.75,0,0.00%,32480,0
08/23/1993,4.75,4.7813,4.625,4.75,0.0312,+0.66%,16560,0
08/16/1993,4.7813,4.7813,4.6563,4.7188,-0.0312,-0.66%,16960,0
08/09/1993,4.6563,4.75,4.5938,4.75,0.125,+2.70%,10880,0
08/02/1993,4.6875,4.6875,4.5938,4.625,-0.0313,-0.67%,13440,0
07/26/1993,4.6563,4.7188,4.5625,4.6563,0.0313,+0.68%,12080,0
07/19/1993,4.5938,4.625,4.5,4.625,0.0625,+1.37%,75440,0
07/12/1993,4.6875,4.6875,4.4688,4.5625,-0.0938,-2.01%,143360,0
07/05/1993,4.6563,4.75,4.6563,4.6563,-0.0312,-0.67%,38900,0
06/28/1993,4.5313,4.6875,4.5313,4.6875,0.1562,+3.45%,26080,0
06/21/1993,4.5625,4.625,4.5313,4.5313,0.0313,+0.70%,138160,0
06/14/1993,4.4375,4.5625,4.4375,4.5,0.0625,+1.41%,51840,0
06/07/1993,4.4375,4.5313,4.4063,4.4375,-0.0313,-0.70%,32640,0
05/31/1993,4.3438,4.5,4.3438,4.4688,0.1563,+3.62%,17000,0
05/24/1993,4.4688,4.5,4.2188,4.3125,-0.2188,-4.83%,55120,0
05/17/1993,4.5938,4.5938,4.3438,4.5313,-0.0937,-2.03%,27200,0
05/10/1993,4.3125,4.6875,4,4.625,0.3437,+8.03%,46640,0
05/03/1993,4.4688,4.4688,4.1563,4.2813,-0.2187,-4.86%,17360,0
"Downloaded from Barchart.com as of 03-23-2023 06:54am CDT"
