12/26/2022,5.185093056059843,103.22,113.59,92.849
12/19/2022,5.261785818522073,103.27,113.793,92.746
12/12/2022,5.06482477485648,103.06,113.189,92.93
12/05/2022,5.079132799996472,103.07,113.228,92.911
11/28/2022,4.951544203579323,102.85,112.753,92.946
11/21/2022,4.838044026256892,102.45,112.126,92.773
11/14/2022,4.79760044188759,102.15,111.745,92.554
11/07/2022,4.746416016322209,102.07,111.562,92.577
10/31/2022,4.722292875288444,101.99,111.434,92.545
10/24/2022,4.77346572209333,101.93,111.476,92.383
10/17/2022,4.8215578395369265,102.13,111.773,92.486
10/10/2022,4.90793031735374,102.7,112.515,92.884
10/03/2022,4.756859783512647,103.39,112.903,93.876
09/26/2022,4.335070356983839,103.67,112.34,94.999
09/19/2022,3.9246178157879266,104.3,112.149,96.45
09/12/2022,3.929265834732997,104.96,112.818,97.101
09/05/2022,4.435565916543231,105.57,114.441,96.698
08/29/2022,5.048571084970479,106.08,116.177,95.982
08/22/2022,5.493892518060397,106.87,117.857,95.882
08/15/2022,6.302436433634218,107.72,120.324,95.115
08/08/2022,6.753315852231405,108.17,121.676,94.663
08/01/2022,7.014542394197927,108.48,122.509,94.45
07/25/2022,7.261593489035309,109.08,123.603,94.556
07/18/2022,7.287696481056273,109.31,123.885,94.734
07/11/2022,7.530998937723997,110.14,125.201,95.078
07/04/2022,7.5072355098265025,111.18,126.194,96.165
06/27/2022,7.204030816147304,112.11,126.518,97.701
06/20/2022,6.993854445153972,112.57,126.557,98.582
06/13/2022,6.627974049436222,113.2,126.455,99.944
06/06/2022,5.568520898766565,114.08,125.217,102.942
05/30/2022,5.198234796543918,114.64,125.036,104.243
05/23/2022,5.203590587277211,115.25,125.657,104.842
05/16/2022,5.296659324517672,115.99,126.583,105.396
05/09/2022,3.9523157768579167,117.13,125.034,109.225
05/02/2022,3.29079625622736,117.57,124.151,110.988
04/25/2022,2.9841246622753563,117.81,123.778,111.841
04/18/2022,2.930683367407678,118.05,123.911,112.188
04/11/2022,2.915917522839082,118.16,123.991,112.328
04/04/2022,3.4396656814289392,118.62,125.499,111.74
03/28/2022,4.23052006259278,119.06,127.521,110.598
03/21/2022,5.023564969222558,119.68,129.727,109.632
03/14/2022,5.604788577636094,120.39,131.599,109.18
03/07/2022,5.571862794434194,120.55,131.693,109.406
02/28/2022,5.4457368647410815,121.32,132.211,110.428
02/21/2022,5.640168880450303,121.72,133.0,110.439
02/14/2022,5.669279054694699,121.9,133.238,110.561
02/07/2022,5.614544059850276,122.06,133.289,110.83
01/31/2022,5.298480914375366,122.39,132.986,111.793
01/24/2022,5.050884575992607,122.69,132.791,112.588
01/17/2022,4.775123035064125,123.23,132.78,113.679
01/10/2022,5.165919569641015,124.16,134.491,113.828
01/03/2022,5.582828136348102,124.83,135.995,113.664
12/27/2021,5.885034409415125,125.32,137.09,113.549
12/20/2021,6.077371553558334,125.85,138.004,113.695
12/13/2021,5.689173490059873,126.46,137.838,115.081
12/06/2021,5.1635094654701685,127.11,137.437,116.782
11/29/2021,5.237830657820089,127.93,138.405,117.454
11/22/2021,5.329764535136614,128.95,139.609,118.29
11/15/2021,5.923375304672161,129.67,141.516,117.823
11/08/2021,6.36980651197507,130.19,142.929,117.45
11/01/2021,6.7842921517281365,130.66,144.228,117.091
10/25/2021,7.0896389188730895,131.09,145.269,116.91
10/18/2021,7.365141207064533,132.34,147.07,117.609
10/11/2021,7.819565205303937,133.23,148.869,117.59
10/04/2021,8.299997289156185,134.19,150.789,117.59
09/27/2021,8.63471279198098,135.44,152.709,118.17
09/20/2021,8.875549842122457,137.04,154.791,119.288
09/13/2021,9.08075134556607,138.9,157.061,120.738
09/06/2021,8.47083496474816,140.38,157.321,123.438
08/30/2021,8.104065029354095,141.66,157.868,125.451
08/23/2021,8.07471578447192,142.31,158.459,126.16
08/16/2021,7.893819101043549,142.84,158.627,127.052
08/09/2021,7.599706902243007,143.36,158.559,128.16
08/02/2021,7.225311065968025,143.95,158.4,129.499
07/26/2021,6.3990280511965265,144.49,157.288,131.691
07/19/2021,5.400774481498,145.08,155.881,134.278
07/12/2021,5.5936455018172175,144.97,156.157,133.782
07/05/2021,6.358739261834849,144.53,157.247,131.812
06/28/2021,6.87173886290799,144.08,157.823,130.336
06/21/2021,6.820453430674531,144.29,157.93,130.649
06/14/2021,6.8271088317090705,144.28,157.934,130.625
06/07/2021,7.211241224643646,143.92,158.342,129.497
05/31/2021,7.3017340406235,143.54,158.143,128.936
05/24/2021,7.355672980767972,143.2,157.911,128.488
05/17/2021,7.344770588656937,142.79,157.479,128.1
05/10/2021,7.276020546974836,142.15,156.702,127.597
05/03/2021,6.909615401742705,141.26,155.079,127.44
04/26/2021,5.970495373082538,140.09,152.03,128.149
04/19/2021,5.788432862182994,139.07,150.646,127.493
04/12/2021,5.560181651708873,137.88,149.0,126.759
04/05/2021,5.503673318793549,136.84,147.847,125.832
03/29/2021,5.487733138555482,135.97,146.945,124.994
03/22/2021,5.66133155715155,135.03,146.352,123.707
03/15/2021,5.715237090445156,133.97,145.4,122.539
03/08/2021,7.028867262937891,132.71,146.767,118.652
03/01/2021,7.430009084785832,131.59,146.45,116.729
02/22/2021,8.106320065233053,130.7,146.912,114.487
02/15/2021,8.654418813531038,130.04,147.348,112.731
02/08/2021,9.406649244018828,129.07,147.883,110.256
02/01/2021,9.387392875553893,127.44,146.214,108.665
01/25/2021,9.242999783620034,126.16,144.645,107.674
01/18/2021,9.253209173038291,125.43,143.936,106.923
01/11/2021,8.875954878208878,124.46,142.211,106.708
01/04/2021,8.329502686235232,123.42,140.079,106.76
12/28/2020,7.588395746137649,122.36,137.536,107.183
12/21/2020,6.850155472688192,121.44,135.14,107.739
12/14/2020,6.02624468471037,120.61,132.662,108.557
12/07/2020,5.272142353920272,119.67,130.214,109.125
11/30/2020,4.6563617771818375,119.09,128.402,109.777
11/23/2020,4.222003671244258,118.68,127.124,110.235
11/16/2020,3.8044868247899077,118.06,125.668,110.451
11/09/2020,3.128501238612507,117.42,123.677,111.162
11/02/2020,3.28810051549523,116.55,123.126,109.973
10/26/2020,3.419649835875013,115.75,122.589,108.91
10/19/2020,4.0944633347973705,115.32,123.508,107.131
10/12/2020,4.052919318219893,115.07,123.175,106.964
10/05/2020,4.118082684939679,114.82,123.056,106.583
09/28/2020,4.597949543002838,114.23,123.425,105.034
09/21/2020,5.369454814038387,113.67,124.408,102.931
09/14/2020,5.526206655564014,113.44,124.492,102.387
09/07/2020,5.733730025036059,112.99,124.457,101.522
08/31/2020,5.904657483715715,112.28,124.089,100.47
08/24/2020,6.044182326832969,111.49,123.578,99.401
08/17/2020,5.909771569189456,110.95,122.769,99.13
08/10/2020,6.725192562298868,109.77,123.22,96.319
08/03/2020,7.235874515219291,108.54,123.011,94.068
07/27/2020,7.595646121298701,107.21,122.401,92.018
07/20/2020,7.711373094332812,106.27,121.692,90.847
07/13/2020,7.1601634059566,105.69,120.01,91.369
07/06/2020,6.488077912602468,104.77,117.746,91.793
06/29/2020,6.284221511054492,104.62,117.188,92.051
06/22/2020,6.433313298759824,104.71,117.576,91.843
06/15/2020,6.922558775481795,105.16,119.005,91.314
06/08/2020,7.268110827443402,105.55,120.086,91.013
06/01/2020,7.6920091653611555,106.14,121.524,90.755
05/25/2020,7.921000252493369,106.34,122.182,90.497
05/18/2020,8.116954170130567,106.56,122.793,90.326
05/11/2020,8.269118755949755,107.0,123.538,90.461
05/04/2020,8.343786011158244,107.68,124.367,90.992
04/27/2020,8.49288996749634,108.05,125.035,91.064
04/20/2020,8.575795298396528,108.44,125.591,91.288
04/13/2020,8.55058038965777,108.84,125.941,91.738
04/06/2020,8.467454458100145,109.3,126.234,92.365
03/30/2020,8.456058183338145,109.44,126.352,92.527
03/23/2020,7.698301436031198,110.23,125.626,94.833
03/16/2020,6.753080408228529,110.98,124.486,97.473
03/09/2020,5.264098688284634,111.9,122.428,101.371
03/02/2020,4.0405259558626785,112.97,121.051,104.888
02/24/2020,3.949765815842758,113.49,121.389,105.59
02/17/2020,2.7753972688608015,114.26,119.81,108.709
02/10/2020,2.800752577433429,114.52,120.121,108.918
02/03/2020,2.9091777188752146,114.62,120.438,108.801
01/27/2020,2.971541687407396,114.69,120.633,108.746
01/20/2020,3.0762306480496546,114.84,120.992,108.687
01/13/2020,3.3156198515511384,115.02,121.651,108.388
01/06/2020,3.6412339941289127,115.27,122.552,107.987
12/30/2019,3.8000460523525237,115.49,123.09,107.889
12/23/2019,3.920438113272546,115.8,123.64,107.959
12/16/2019,4.079142679534511,116.11,124.268,107.951
12/09/2019,4.09063992548843,116.26,124.441,108.078
12/02/2019,4.4251152527363615,116.79,125.64,107.939
11/25/2019,4.510184586023059,117.35,126.37,108.329
11/18/2019,4.526583700761535,117.92,126.973,108.866
11/11/2019,4.377972704346156,118.64,127.395,109.884
11/04/2019,4.062800142758686,119.36,127.485,111.234
10/28/2019,3.297126779485435,119.88,126.474,113.285
10/21/2019,2.554804297788776,120.34,125.449,115.23
10/14/2019,2.5113850760088545,120.55,125.572,115.527
10/07/2019,2.9189775607222477,120.32,126.157,114.482
09/30/2019,3.2289518423166363,120.15,126.607,113.692
09/23/2019,3.467831454958559,119.97,126.905,113.034
09/16/2019,3.7292358466581326,119.72,127.178,112.261
09/09/2019,3.9301501243591197,119.51,127.37,111.649
09/02/2019,4.305157372268754,119.16,127.77,110.549
08/26/2019,4.896965897369514,118.53,128.323,108.736
08/19/2019,5.130213445851937,117.93,128.19,107.669
08/12/2019,5.471731901327039,117.36,128.303,106.416
08/05/2019,5.9204805548198545,116.66,128.5,104.819
07/29/2019,6.447112144208445,115.8,128.694,102.905
07/22/2019,6.991849540715247,115.05,129.033,101.066
07/15/2019,7.322506401499422,113.85,128.495,99.204
07/08/2019,7.502351964550851,112.72,127.724,97.715
07/01/2019,7.424579112650091,111.65,126.499,96.8
06/24/2019,7.082467084286379,110.52,124.684,96.355
06/17/2019,6.59245894943609,109.37,122.554,96.185
06/10/2019,6.503232273262275,108.38,121.386,95.373
06/03/2019,6.33929254728002,107.25,119.928,94.571
05/27/2019,5.702280684077205,106.03,117.434,94.625
05/20/2019,5.952040406448867,105.11,117.014,93.205
05/13/2019,6.404915690311622,104.01,116.819,91.2
05/06/2019,6.445351425640031,102.96,115.85,90.069
04/29/2019,6.269248758822703,101.96,114.498,89.421
04/22/2019,5.648516176837949,101.28,112.577,89.982
04/15/2019,5.151815214077461,100.7,111.003,90.396
04/08/2019,4.92327533254032,100.49,110.336,90.643
04/01/2019,4.460531918953165,100.17,109.091,91.248
03/25/2019,4.251553245579785,100.05,108.553,91.546
03/18/2019,4.117433059565147,99.94,108.174,91.705
03/11/2019,4.116021136971967,99.94,108.172,91.707
03/04/2019,4.055740992716375,99.81,107.921,91.698
02/25/2019,4.1723542514987875,100.0,108.344,91.655
02/18/2019,4.184516698496973,100.04,108.409,91.67
02/11/2019,4.447918614363353,100.3,109.195,91.404
02/04/2019,4.72597291570741,100.59,110.041,91.138
01/28/2019,5.180712788796537,101.03,111.391,90.668
01/21/2019,5.685460843238655,101.65,113.02,90.279
01/14/2019,5.752330831932391,102.18,113.684,90.675
01/07/2019,5.681386274493224,102.53,113.892,91.167
12/31/2018,5.395391088697834,102.98,113.77,92.189
12/24/2018,4.6554634570577385,103.57,112.88,94.259
12/17/2018,3.950065822236384,104.05,111.95,96.149
12/10/2018,3.1319666345604635,104.58,110.843,98.316
12/03/2018,3.005818524129492,104.71,110.721,98.698
11/26/2018,3.4295203746296643,104.51,111.369,97.65
11/19/2018,4.023171634419788,104.05,112.096,96.003
11/12/2018,4.5731553658278425,103.56,112.706,94.413
11/05/2018,5.030720624324113,102.91,112.971,92.848
10/29/2018,5.491958666996684,102.33,113.313,91.346
10/22/2018,5.709880033766033,101.89,113.309,90.47
10/15/2018,5.979806853068082,101.55,113.509,89.59
10/08/2018,6.236800862621798,100.97,113.443,88.496
10/01/2018,6.411576249254157,100.6,113.423,87.776
09/24/2018,6.399970703057944,99.92,112.719,87.12
09/17/2018,6.247281808914978,99.24,111.734,86.745
09/10/2018,5.875051489136073,98.34,110.09,86.589
09/03/2018,5.055845626598977,97.41,107.521,87.298
08/27/2018,4.478138564180433,96.74,105.696,87.783
08/20/2018,4.161476300545276,96.14,104.462,87.817
08/13/2018,4.089340411362204,95.38,103.558,87.201
08/06/2018,3.8884071288896687,94.73,102.506,86.953
07/30/2018,3.84130251347118,93.95,101.632,86.267
07/23/2018,3.137208950643869,93.25,99.524,86.975
07/16/2018,2.261011941587218,92.65,97.172,88.127
07/09/2018,2.229770167528483,92.35,96.809,87.89
07/02/2018,2.1698467687834544,92.15,96.489,87.81
06/25/2018,2.124907056790955,92.04,96.289,87.79
06/18/2018,2.998761410982875,91.48,97.477,85.482
06/11/2018,3.2284586105446675,91.14,97.596,84.683
06/04/2018,3.1343476195214857,90.85,97.118,84.581
05/28/2018,3.1010014511444535,90.6,96.802,84.397
05/21/2018,3.1778255144044656,90.29,96.645,83.934
05/14/2018,3.1337756779961143,89.93,96.197,83.662
05/07/2018,3.113501244579807,89.56,95.787,83.332
04/30/2018,3.012043326381611,89.14,95.164,83.115
04/23/2018,2.9583145539310043,88.88,94.796,82.963
04/16/2018,2.770166962477172,88.6,94.14,83.059
04/09/2018,2.4296676727486832,88.26,93.119,83.4
04/02/2018,2.2342795259322417,87.94,92.408,83.471
03/26/2018,2.2840599816992553,87.79,92.358,83.221
03/19/2018,2.316145504928394,87.55,92.182,82.917
03/12/2018,2.313591364091767,87.56,92.187,82.932
03/05/2018,2.238487212382506,87.44,91.916,82.963
02/26/2018,2.138041159566392,87.36,91.636,83.083
02/19/2018,2.0999857142371234,87.32,91.519,83.12
02/12/2018,1.9496448394515349,87.2,91.099,83.3
02/05/2018,1.6406934509529814,86.92,90.201,83.638
01/29/2018,1.2642843825658852,87.1,89.628,84.571
01/22/2018,1.3403805429802396,87.05,89.73,84.369
01/15/2018,1.4237134543158623,86.78,89.627,83.932
01/08/2018,1.4913400014751854,86.54,89.522,83.557
01/01/2018,1.7444769989885238,86.34,89.828,82.851
12/25/2017,1.9610507387622598,86.1,90.022,82.177
12/18/2017,2.1410464731060848,85.89,90.172,81.607
12/11/2017,2.275038461213349,85.71,90.26,81.159
12/04/2017,2.370659191026834,85.48,90.221,80.738
11/27/2017,2.4764591658252724,85.56,90.512,80.607
11/20/2017,2.58171357822668,85.65,90.813,80.486
11/13/2017,2.6336656963251825,85.74,91.007,80.472
11/06/2017,2.6446984705255168,85.8,91.089,80.51
10/30/2017,2.644829862202861,85.9,91.189,80.61
10/23/2017,2.634116550192874,85.85,91.118,80.581
10/16/2017,2.5905694354716697,85.74,90.921,80.558
10/09/2017,2.471401424293513,85.59,90.532,80.647
10/02/2017,2.3674543290209433,85.37,90.104,80.635
09/25/2017,2.3333838089778554,85.06,89.726,80.393
09/18/2017,2.3819319889535056,84.86,89.623,80.096
09/11/2017,2.4569483104045973,84.67,89.583,79.756
09/04/2017,2.6351166957081817,84.45,89.72,79.179
08/28/2017,2.987769234730154,84.16,90.135,78.184
08/21/2017,3.5006463688867537,83.76,90.761,76.758
08/14/2017,3.866455741373489,83.45,91.182,75.717
08/07/2017,4.108819781883847,83.19,91.407,74.972
07/31/2017,4.348296218060589,82.91,91.606,74.213
07/24/2017,4.5302141229747654,82.65,91.71,73.589
07/17/2017,4.70703728474717,82.37,91.784,72.955
07/10/2017,4.599827714164957,81.7,90.899,72.5
07/03/2017,4.504778573914595,80.94,89.949,71.93
06/26/2017,4.440413832065656,80.23,89.11,71.349
06/19/2017,4.317442530017047,79.63,88.264,70.995
06/12/2017,4.166352121460691,78.98,87.312,70.647
06/05/2017,4.009089048649332,78.35,86.368,70.331
05/29/2017,3.895523071424426,77.65,85.441,69.858
05/22/2017,3.44422777992397,77.01,83.898,70.121
05/15/2017,3.078562976455086,76.47,82.627,70.312
05/08/2017,2.828359064899646,76.02,81.676,70.363
05/01/2017,2.45849852552325,75.58,80.496,70.663
04/24/2017,2.0475705116063754,75.13,79.225,71.034
04/17/2017,1.669808372239161,74.86,78.199,71.52
04/10/2017,1.5089201436789155,74.67,77.687,71.652
04/03/2017,1.520097036376296,74.69,77.73,71.649
03/27/2017,1.4967798769358167,74.56,77.553,71.566
03/20/2017,1.4991030651693038,74.31,77.308,71.311
03/13/2017,1.5266089872655677,74.04,77.093,70.986
03/06/2017,1.3715228762219036,73.84,76.583,71.096
02/27/2017,1.4130357391092414,73.86,76.686,71.033
02/20/2017,1.41226590980594,73.86,76.684,71.035
02/13/2017,1.4616412008423953,73.92,76.843,70.996
02/06/2017,1.647221903691181,74.1,77.394,70.805
01/30/2017,1.936424540228718,74.3,78.172,70.427
01/23/2017,2.0602475579405497,74.49,78.61,70.369
01/16/2017,2.142461201515677,74.69,78.974,70.405
01/09/2017,2.2320259855118167,75.07,79.534,70.605
01/02/2017,2.3187162396464123,75.32,79.957,70.682
12/26/2016,2.3004271342513762,75.48,80.08,70.879
12/19/2016,2.252820454452596,75.59,80.095,71.084
12/12/2016,2.2154412653013393,75.74,80.17,71.309
12/05/2016,2.178245853892532,76.0,80.356,71.643
11/28/2016,2.3624415336680826,76.28,81.004,71.555
11/21/2016,2.4450204498122305,76.56,81.45,71.669
11/14/2016,2.5401997952917017,76.75,81.83,71.669
11/07/2016,2.4880002009646236,77.02,81.996,72.043
10/31/2016,2.189884700161176,77.27,81.649,72.89
10/24/2016,1.749481351715417,77.52,81.018,74.021
10/17/2016,1.4165292090175907,77.77,80.603,74.936
10/10/2016,1.4156853463958725,77.78,80.611,74.948
10/03/2016,1.367047914302934,77.83,80.564,75.095
09/26/2016,1.3933215709232387,77.82,80.606,75.033
09/19/2016,1.4030092658282773,77.79,80.596,74.983
09/12/2016,1.4204928722102061,77.67,80.51,74.829
09/05/2016,1.466437860940586,77.59,80.522,74.657
08/29/2016,1.534894133157073,77.7,80.769,74.63
08/22/2016,1.5393001656597074,77.7,80.778,74.621
08/15/2016,1.5306795876341994,77.65,80.711,74.588
08/08/2016,1.5478129731979904,77.76,80.855,74.664
08/01/2016,1.4683153612218331,77.86,80.796,74.923
07/25/2016,1.4567944261288217,77.87,80.783,74.956
07/18/2016,1.5236305326423472,77.75,80.797,74.702
07/11/2016,1.4344511145382421,77.53,80.398,74.661
07/04/2016,1.5948338471452146,77.2,80.389,74.01
06/27/2016,1.7378463683536605,76.85,80.325,73.374
06/20/2016,1.683581004882155,76.66,80.027,73.292
06/13/2016,2.0708790404077213,76.38,80.521,72.238
06/06/2016,2.2052743593485147,76.2,80.61,71.789
05/30/2016,2.7532380935908907,75.71,81.216,70.203
05/23/2016,3.190086989409538,75.25,81.63,68.869
05/16/2016,3.3628105804520136,74.89,81.615,68.164
05/09/2016,3.3957436593476853,74.75,81.541,67.958
05/02/2016,3.3700712158647343,74.57,81.31,67.829
04/25/2016,3.4267966090796826,74.31,81.163,67.456
04/18/2016,3.4177616944427256,74.15,80.985,67.314
04/11/2016,3.1757534539066485,73.89,80.241,67.538
04/04/2016,2.9437849785607657,73.68,79.567,67.792
03/28/2016,2.8253415722705117,73.52,79.17,67.869
03/21/2016,2.5475380271940997,73.14,78.235,68.044
03/14/2016,2.355110400809271,72.94,77.65,68.229
03/07/2016,2.1810731303649598,72.77,77.132,68.407
02/29/2016,2.0857612519173916,72.55,76.721,68.378
02/22/2016,2.0072020326813154,72.24,76.254,68.225
02/15/2016,2.035466776933488,72.09,76.16,68.019
02/08/2016,2.2128635294567993,71.85,76.275,67.424
02/01/2016,2.4608372558948317,71.36,76.281,66.438
01/25/2016,2.626489101443218,71.16,76.412,65.907
01/18/2016,2.716156291526686,70.88,76.312,65.447
01/11/2016,2.77150049612119,70.83,76.373,65.286
01/04/2016,2.790499059308209,70.82,76.4,65.239
12/28/2015,2.8712767195099818,70.7,76.442,64.957
12/21/2015,2.8407868628251576,70.56,76.241,64.878
12/14/2015,2.793255269394475,70.34,75.926,64.753
12/07/2015,2.8407226193347355,70.17,75.851,64.488
11/30/2015,3.3086130024528413,69.62,76.237,63.002
11/23/2015,3.342531974417,69.1,75.785,62.414
11/16/2015,3.251071361874422,68.53,75.032,62.027
11/09/2015,3.1237533513387397,68.0,74.247,61.752
11/02/2015,3.1043654746179628,67.65,73.858,61.441
10/26/2015,2.8609718628466108,67.25,72.971,61.528
10/19/2015,2.5204761454931504,66.81,71.85,61.769
10/12/2015,2.342887107822314,66.45,71.135,61.764
10/05/2015,2.276166733787313,66.15,70.702,61.597
09/28/2015,2.0944939722997544,65.86,70.048,61.671
09/21/2015,2.0405746739582953,65.72,69.801,61.638
09/14/2015,2.1155188488879046,65.6,69.831,61.368
09/07/2015,2.1098388564058643,65.45,69.669,61.23
08/31/2015,2.1095651210616855,65.24,69.459,61.02
08/24/2015,2.1172954446651993,65.02,69.254,60.785
08/17/2015,2.0476376632597884,64.81,68.905,60.714
08/10/2015,1.9716845589495313,64.58,68.523,60.636
08/03/2015,1.5738821429827603,64.25,67.397,61.102
07/27/2015,1.192050753953037,63.97,66.354,61.585
07/20/2015,0.8215412345098703,63.74,65.383,62.096
07/13/2015,0.6898188167917727,63.86,65.239,62.48
07/06/2015,0.8170740480519512,63.96,65.594,62.325
06/29/2015,0.9446771935428537,64.08,65.969,62.19
06/22/2015,0.9475705778463166,64.12,66.015,62.224
06/15/2015,0.945312117768519,64.12,66.01,62.229
06/08/2015,0.9291420774025906,64.01,65.868,62.151
06/01/2015,0.9209913137483988,63.97,65.811,62.128
05/25/2015,0.9251594457173323,63.98,65.83,62.129
05/18/2015,0.9789382002966284,64.06,66.017,62.102
05/11/2015,1.1280492010546361,64.17,66.426,61.913
05/04/2015,1.3723064526555293,64.3,67.044,61.555
04/27/2015,1.4761741089722449,64.5,67.452,61.547
04/20/2015,1.4727983568703493,64.53,67.475,61.584
04/13/2015,1.4900671125825176,64.68,67.66,61.699
04/06/2015,1.4329916259350581,64.8,67.665,61.934
03/30/2015,1.402169747213226,64.88,67.684,62.075
03/23/2015,1.3453029398615026,64.96,67.65,62.269
03/16/2015,1.28319328240137,65.04,67.606,62.473
03/09/2015,1.368385910479935,64.99,67.726,62.253
03/02/2015,1.470333295549006,64.93,67.87,61.989
02/23/2015,2.0012158804087075,64.65,68.652,60.647
02/16/2015,2.5130041782695067,64.24,69.266,59.213
02/09/2015,2.624414220354706,63.93,69.178,58.681
02/02/2015,2.677407327994752,63.77,69.124,58.415
01/26/2015,2.7330541524089855,63.62,69.086,58.153
01/19/2015,2.738302393819937,63.6,69.076,58.123
01/12/2015,2.7605325573157073,63.67,69.191,58.148
01/05/2015,2.756755339162327,63.65,69.163,58.136
12/29/2014,2.7250238531066104,63.56,69.01,58.109
12/22/2014,2.631191745198361,63.39,68.652,58.127
12/15/2014,2.4294258580989867,63.12,67.978,58.261
12/08/2014,2.2811641764677963,62.82,67.382,58.257
12/01/2014,2.2488863910833734,62.76,67.257,58.262
11/24/2014,2.2329498426968746,62.75,67.215,58.284
11/17/2014,2.3062339430335324,62.8,67.412,58.187
11/10/2014,2.431925163322259,62.9,67.763,58.036
11/03/2014,2.561522984476227,63.01,68.133,57.886
10/27/2014,2.655902859669381,63.1,68.411,57.788
10/20/2014,2.7425526430681315,63.31,68.795,57.824
10/13/2014,2.8427011802157462,63.57,69.255,57.884
10/06/2014,2.6828818460752233,63.96,69.325,58.594
09/29/2014,2.266243587966659,64.39,68.922,59.857
09/22/2014,2.0699190805439707,64.69,68.829,60.55
09/15/2014,1.9623200554445748,64.95,68.874,61.025
09/08/2014,1.790832208778924,65.22,68.801,61.638
09/01/2014,1.7386258942049608,65.45,68.927,61.972
08/25/2014,1.7545013536614895,65.51,69.019,62.0
08/18/2014,1.7366404348626692,65.54,69.013,62.066
08/11/2014,1.681885846304677,65.66,69.023,62.296
08/04/2014,1.6260734915741046,65.71,68.962,62.457
07/28/2014,1.4540254468199654,65.83,68.738,62.921
07/21/2014,1.0332327908075702,66.0,68.066,63.933
07/14/2014,0.8637505426915807,66.11,67.837,64.382
07/07/2014,0.8637100207824385,66.12,67.847,64.392
06/30/2014,0.919407417851303,66.03,67.868,64.191
06/23/2014,0.9322392396804594,65.92,67.784,64.055
06/16/2014,1.0368172452269493,65.75,67.823,63.676
06/09/2014,1.0979685787853863,65.61,67.805,63.414
06/02/2014,1.1077815669165114,65.51,67.725,63.294
05/26/2014,1.1175039149819566,65.52,67.755,63.284
05/19/2014,1.227568735346416,65.59,68.045,63.134
05/12/2014,1.2556213601241415,65.63,68.141,63.118
05/05/2014,1.273599230527405,65.66,68.207,63.112
04/28/2014,1.2568174091728672,65.6,68.113,63.086
04/21/2014,1.295866505470373,65.45,68.041,62.858
04/14/2014,1.2451285074240317,65.33,67.82,62.839
04/07/2014,1.214359913699393,65.25,67.678,62.821
03/31/2014,1.2307680528840506,65.22,67.681,62.758
03/24/2014,1.2173619018188455,65.16,67.594,62.725
03/17/2014,1.2181009810356431,65.16,67.596,62.723
03/10/2014,1.24675980044273,65.12,67.613,62.626
03/03/2014,1.253377437167271,65.11,67.616,62.603
02/24/2014,1.3113142262631015,64.98,67.602,62.357
02/17/2014,1.4888972429284686,64.75,67.727,61.772
02/10/2014,1.7973675194572738,64.52,68.114,60.925
02/03/2014,2.085121099600691,64.26,68.43,60.089
01/27/2014,2.258536030263851,64.1,68.617,59.582
01/20/2014,2.51699225266984,63.86,68.893,58.826
01/13/2014,2.767535907626131,63.56,69.095,58.024
01/06/2014,2.8170090521686286,63.14,68.774,57.505
12/30/2013,2.666039197011176,62.73,68.062,57.397
12/23/2013,2.5901708437861775,62.35,67.53,57.169
12/16/2013,2.428208187120701,62.02,66.876,57.163
12/09/2013,2.3236081855596913,61.78,66.427,57.132
12/02/2013,2.422578172113338,61.49,66.335,56.644
11/25/2013,2.339826916675676,61.24,65.919,56.56
11/18/2013,2.202844751679065,60.97,65.375,56.564
11/11/2013,2.2661123096616373,60.59,65.122,56.057
11/04/2013,2.3244526237374687,60.11,64.758,55.461
10/28/2013,2.370894346022193,59.65,64.391,54.908
10/21/2013,2.223244251088935,59.3,63.746,54.853
10/14/2013,1.9589116876469954,58.94,62.857,55.022
10/07/2013,1.753758820362709,58.62,62.127,55.112
09/30/2013,1.7008101010988852,58.35,61.751,54.948
09/23/2013,1.6715875687501385,58.2,61.543,54.856
09/16/2013,1.6765455555993698,58.04,61.393,54.686
09/09/2013,1.6538591233838504,57.83,61.137,54.522
09/02/2013,1.7119900700646595,57.65,61.073,54.226
08/26/2013,1.787390556090078,57.48,61.054,53.905
08/19/2013,1.764579269967773,57.38,60.909,53.85
08/12/2013,1.6912554508411781,57.2,60.582,53.817
08/05/2013,1.6225797360992762,57.1,60.345,53.854
07/29/2013,1.4749661013053816,56.9,59.849,53.95
07/22/2013,1.2456865576861613,56.67,59.161,54.178
07/15/2013,1.2460296946702347,56.53,59.022,54.037
07/08/2013,1.209522633107789,56.23,58.649,53.81
07/01/2013,1.1575102591338013,55.88,58.195,53.564
06/24/2013,1.2910015491857476,55.71,58.292,53.127
06/17/2013,1.4654572665212728,55.57,58.5,52.639
06/10/2013,1.6346696914055765,55.43,58.699,52.16
06/03/2013,1.7491540812632838,55.18,58.678,51.681
05/27/2013,1.801919809536485,54.95,58.553,51.346
05/20/2013,1.9426155049314322,54.67,58.555,50.784
05/13/2013,2.1947403035439077,54.34,58.729,49.95
05/06/2013,2.579372016596288,53.85,59.008,48.691
04/29/2013,2.822708805385352,53.41,59.055,47.764
04/22/2013,3.0882794562668714,52.96,59.136,46.783
04/15/2013,3.236821743624446,52.57,59.043,46.096
04/08/2013,3.35090584767761,52.2,58.901,45.498
04/01/2013,3.3107838950919164,51.74,58.361,45.118
03/25/2013,3.3630774597085926,51.25,57.976,44.523
03/18/2013,3.122358883920937,50.78,57.024,44.535
03/11/2013,2.8682451080756675,50.44,56.176,44.703
03/04/2013,2.6222232933142817,50.24,55.484,44.995
02/25/2013,2.4124572535073026,50.09,54.914,45.265
02/18/2013,2.302570302944081,49.98,54.585,45.374
02/11/2013,2.2877554502175266,49.97,54.545,45.394
02/04/2013,2.2106820214585357,49.9,54.321,45.478
01/28/2013,2.2203884795233466,49.91,54.35,45.469
01/21/2013,2.2329509622918278,49.92,54.385,45.454
01/14/2013,2.210400416214221,49.89,54.31,45.469
01/07/2013,2.147135300813621,49.81,54.104,45.515
12/31/2012,2.141347706468989,49.8,54.082,45.517
12/24/2012,2.1483179466736297,49.85,54.146,45.553
12/17/2012,2.0700495163159744,49.97,54.11,45.829
12/10/2012,2.0068046741025896,50.09,54.103,46.076
12/03/2012,1.872511682206549,50.28,54.025,46.534
11/26/2012,1.7780902676748447,50.4,53.956,46.843
11/19/2012,1.6714783875360164,50.5,53.842,47.157
11/12/2012,1.5449271827500481,50.7,53.789,47.61
11/05/2012,1.1483901775964471,50.94,53.236,48.643
10/29/2012,0.942899782585615,51.12,53.005,49.234
10/22/2012,0.8954886933959584,51.26,53.05,49.469
10/15/2012,0.9260858491522266,51.3,53.152,49.447
10/08/2012,0.9202907149374052,51.2,53.04,49.359
10/01/2012,0.9290452088031026,51.17,53.028,49.311
09/24/2012,0.922642942854927,51.02,52.865,49.174
09/17/2012,1.04925211460354,51.11,53.208,49.011
09/10/2012,1.1478262063570424,51.16,53.455,48.864
09/03/2012,1.3706385373248482,51.28,54.021,48.538
08/27/2012,1.5814076008417308,51.45,54.612,48.287
08/20/2012,1.6694265482494277,51.62,54.958,48.281
08/13/2012,1.7593052606071522,51.79,55.308,48.271
08/06/2012,1.8511158796790654,52.0,55.702,48.297
07/30/2012,1.8487374069888887,52.22,55.917,48.522
07/23/2012,1.856698683147053,52.45,56.163,48.736
07/16/2012,1.822823359516769,52.6,56.245,48.954
07/09/2012,1.7341510891499623,52.75,56.218,49.281
07/02/2012,1.601763091096808,52.92,56.123,49.716
06/25/2012,1.5667147155752388,52.99,56.123,49.856
06/18/2012,1.5021784181647666,53.09,56.094,50.085
06/11/2012,1.4707753057486384,53.18,56.121,50.238
06/04/2012,1.4704676127001235,53.18,56.12,50.239
05/28/2012,1.5042805589383919,53.14,56.148,50.131
05/21/2012,1.4080340904963917,53.2,56.016,50.383
05/14/2012,1.3170725112916146,53.26,55.894,50.625
05/07/2012,1.070123824610966,53.38,55.52,51.239
04/30/2012,1.08434311912789,53.34,55.508,51.171
04/23/2012,1.1774973460691966,53.22,55.574,50.865
04/16/2012,1.2371014509732023,53.01,55.484,50.535
04/09/2012,1.2362281342859018,52.82,55.292,50.347
04/02/2012,1.8147685802878568,52.44,56.069,48.81
03/26/2012,1.9960385767815214,52.12,56.112,48.127
03/19/2012,2.0392731548274745,51.81,55.888,47.731
03/12/2012,2.0595436387704926,51.54,55.659,47.42
03/05/2012,1.9848841276003997,51.26,55.229,47.29
02/27/2012,1.9994924355945936,51.0,54.998,47.001
02/20/2012,1.9960686360944602,50.78,54.772,46.787
02/13/2012,2.171448825093513,50.41,54.752,46.067
02/06/2012,2.4305873775694624,50.0,54.861,45.138
01/30/2012,2.4639805194035116,49.66,54.587,44.732
01/23/2012,2.30165049475371,49.45,54.053,44.846
01/16/2012,2.2238311536625255,49.24,53.687,44.792
01/09/2012,2.173431618432013,49.06,53.406,44.713
01/02/2012,2.103334257791661,48.91,53.116,44.703
12/26/2011,2.043859094947594,48.65,52.737,44.562
12/19/2011,1.8831423206969777,48.43,52.196,44.663
12/12/2011,1.6282091389007738,48.19,51.446,44.933
12/05/2011,1.6164776521808146,48.18,51.412,44.947
11/28/2011,1.8587132646000026,48.3,52.017,44.582
11/21/2011,2.0117479961466342,48.38,52.403,44.356
11/14/2011,2.3281773987391934,48.77,53.426,44.113
11/07/2011,2.514902582606332,49.03,54.059,44.0
10/31/2011,2.5358055919174873,49.13,54.201,44.058
10/24/2011,2.5509233622357215,49.22,54.321,44.118
10/17/2011,2.563763834677445,49.28,54.407,44.152
10/10/2011,2.5882378175121388,49.41,54.586,44.233
10/03/2011,2.6521368742958944,49.59,54.894,44.285
09/26/2011,2.5867672875618326,49.92,55.093,44.746
09/19/2011,2.335068521478546,50.3,54.97,45.629
09/12/2011,2.137975678065586,50.56,54.835,46.284
09/05/2011,2.1530954460961556,50.72,55.026,46.413
08/29/2011,2.0692377823730173,50.88,55.018,46.741
08/22/2011,1.9677258447253272,51.0,54.935,47.064
08/15/2011,1.8899986772482151,51.09,54.869,47.31
08/08/2011,1.5980785337398165,51.29,54.486,48.093
08/01/2011,1.4866102380920163,51.35,54.323,48.376
07/25/2011,1.4557781424379204,51.37,54.281,48.458
07/18/2011,1.6166214770316525,51.22,54.453,47.986
07/11/2011,1.7090977151702011,50.97,54.388,47.551
07/04/2011,1.775391506119144,50.73,54.28,47.179
06/27/2011,1.6030548961280153,50.5,53.706,47.293
06/20/2011,1.4867800778864375,50.31,53.283,47.336
06/13/2011,1.530431311754958,50.21,53.27,47.149
06/06/2011,1.6151671740101705,50.08,53.31,46.849
05/30/2011,1.6741475442743992,49.96,53.308,46.611
05/23/2011,1.6805386041385664,49.82,53.181,46.458
05/16/2011,1.6655704728410627,49.58,52.911,46.248
05/09/2011,1.5757379223716106,49.33,52.481,46.178
05/02/2011,1.448292097610147,49.11,52.006,46.213
04/25/2011,1.4226014902283775,48.9,51.745,46.054
04/18/2011,1.2215604774222186,48.63,51.073,46.186
04/11/2011,1.049611833012566,48.48,50.579,46.38
04/04/2011,1.066022982866692,48.28,50.412,46.147
03/28/2011,1.1084516227603258,48.04,50.256,45.823
03/21/2011,1.0020628722789804,47.81,49.814,45.805
03/14/2011,1.0079211278666598,47.68,49.695,45.664
03/07/2011,1.1737397496890012,47.52,49.867,45.172
02/28/2011,1.2806599861009165,47.37,49.931,44.808
02/21/2011,1.2800820286216035,47.31,49.87,44.749
02/14/2011,1.281830722053423,47.23,49.793,44.666
02/07/2011,1.2380165588553327,47.02,49.496,44.543
01/31/2011,1.1894158229988367,46.79,49.168,44.411
01/24/2011,1.1562936478248074,46.62,48.932,44.307
01/17/2011,1.2530542685773827,46.43,48.936,43.923
01/10/2011,1.316911158734711,46.22,48.853,43.586
01/03/2011,1.5044384334362109,45.9,48.908,42.891
12/27/2010,1.6789892792987093,45.63,48.987,42.272
12/20/2010,1.8067443095247313,45.35,48.963,41.736
12/13/2010,1.7400387926710135,45.14,48.62,41.659
12/06/2010,1.7341669469805951,44.94,48.408,41.471
11/29/2010,1.7278064127673556,44.72,48.175,41.264
11/22/2010,1.841971769599089,44.3,47.983,40.616
11/15/2010,2.083741826618643,43.95,48.117,39.782
11/08/2010,2.411463248735091,43.57,48.392,38.747
11/01/2010,2.559292871087637,43.2,48.318,38.081
10/25/2010,2.5111750237687533,42.91,47.932,37.887
10/18/2010,2.596756630876293,42.62,47.813,37.426
10/11/2010,2.6843248685656507,42.29,47.658,36.921
10/04/2010,2.5266895337575606,41.95,47.003,36.896
09/27/2010,2.397775010296004,41.56,46.355,36.764
09/20/2010,2.2440610508629217,41.34,45.828,36.851
09/13/2010,2.103581469779576,41.11,45.317,36.902
09/06/2010,1.9323922997155625,41.0,44.864,37.135
08/30/2010,1.8789930814135536,40.96,44.717,37.202
08/23/2010,1.8136606628584082,40.91,44.537,37.282
08/16/2010,1.7961542250040783,40.86,44.452,37.267
08/09/2010,1.7971505223547641,40.73,44.324,37.135
08/02/2010,1.8105289282416899,40.59,44.211,36.968
07/26/2010,1.6628304182928582,40.4,43.725,37.074
07/19/2010,1.5458072324840513,40.26,43.351,37.168
07/12/2010,1.441847772824857,40.14,43.023,37.256
07/05/2010,1.483261608752819,40.08,43.046,37.113
06/28/2010,1.533916555748715,40.02,43.087,36.952
06/21/2010,1.53326938272438,40.02,43.086,36.953
06/14/2010,1.8658081359025105,39.84,43.571,36.108
06/07/2010,2.084370408540671,39.59,43.758,35.421
05/31/2010,2.2209423675548186,39.43,43.871,34.988
05/24/2010,2.3200851277485492,39.32,43.96,34.679
05/17/2010,2.380723629487472,39.17,43.931,34.408
05/10/2010,2.494596159702007,39.02,44.009,34.03
05/03/2010,2.5228257966018983,38.8,43.845,33.754
04/26/2010,2.57068376118106,38.58,43.721,33.438
04/19/2010,2.3891222237466216,38.25,43.028,33.471
04/12/2010,2.1216173076217117,37.92,42.163,33.676
04/05/2010,1.8349168918509637,37.57,41.239,33.9
03/29/2010,1.6822366064260996,37.34,40.704,33.975
03/22/2010,1.6299815949881151,37.17,40.429,33.91
03/15/2010,1.6067918346817678,36.98,40.193,33.766
03/08/2010,1.5072955914484722,36.76,39.774,33.745
03/01/2010,1.2575929389114746,36.59,39.105,34.074
02/22/2010,0.9454416957168749,36.44,38.33,34.549
02/15/2010,0.8907833631136132,36.42,38.201,34.638
02/08/2010,0.8017449719206226,36.32,37.923,34.716
02/01/2010,0.6982728692996742,36.23,37.626,34.833
01/25/2010,0.6473561616297479,36.32,37.614,35.025
01/18/2010,0.6473561616297479,36.32,37.614,35.025
01/11/2010,0.7819398953883865,36.23,37.793,34.666
01/04/2010,0.8440823419548594,36.16,37.848,34.471
12/28/2009,0.8387252231809892,36.1,37.777,34.422
12/21/2009,0.8472573398914878,36.08,37.774,34.385
12/14/2009,0.860302272460093,36.03,37.75,34.309
12/07/2009,0.8937421328325077,35.98,37.767,34.192
11/30/2009,0.8834393018198817,35.95,37.716,34.183
11/23/2009,0.890084265673762,35.89,37.67,34.109
11/16/2009,1.1272311209330588,35.73,37.984,33.475
11/09/2009,1.2037046980052875,35.59,37.997,33.182
11/02/2009,1.2930023201835332,35.46,38.046,32.873
10/26/2009,1.4073308068823056,35.33,38.144,32.515
10/19/2009,1.4361284761468944,35.27,38.142,32.397
10/12/2009,1.5059531865234066,35.04,38.051,32.028
10/05/2009,1.6357918571749894,34.72,37.991,31.448
09/28/2009,1.6809119548625984,34.35,37.711,30.988
09/21/2009,1.811043897866643,34.08,37.702,30.457
09/14/2009,1.8225805880673709,33.83,37.475,30.184
09/07/2009,1.8197348707984913,33.53,37.169,29.89
08/31/2009,1.892230165703951,33.27,37.054,29.485
08/24/2009,2.0299630538509814,33.04,37.099,28.98
08/17/2009,1.9942755576900606,32.97,36.958,28.981
08/10/2009,1.8988035706728597,32.83,36.627,29.032
08/03/2009,1.8061007723823166,32.67,36.282,29.057
07/27/2009,1.8246081771163916,32.37,36.019,28.72
07/20/2009,2.0228507112488554,32.0,36.045,27.954
07/13/2009,2.251934723743119,31.47,35.973,26.966
07/06/2009,2.2037853797500335,31.12,35.527,26.712
06/29/2009,2.3194040182771087,30.85,35.488,26.211
06/22/2009,2.253299802511863,30.63,35.136,26.123
06/15/2009,2.1658670319297073,30.5,34.831,26.168
06/08/2009,2.0964720365413894,30.4,34.592,26.207
06/01/2009,1.9251960939083583,30.2,34.05,26.349
05/25/2009,1.8568198620221619,30.1,33.813,26.386
05/18/2009,1.9231913581336622,30.17,34.016,26.323
05/11/2009,2.2834020670919957,30.43,34.996,25.863
05/04/2009,2.3845397878836074,30.58,35.349,25.81
04/27/2009,2.460567007825635,30.68,35.601,25.758
04/20/2009,2.4839293468212817,30.76,35.727,25.792
04/13/2009,2.499046818288925,30.85,35.848,25.851
04/06/2009,2.5445864104015015,31.04,36.129,25.95
03/30/2009,2.508101871934232,30.83,35.846,25.813
03/23/2009,2.4715541669160315,30.68,35.623,25.736
03/16/2009,2.4593525570767603,30.65,35.568,25.731
03/09/2009,2.446356474432947,30.69,35.582,25.797
03/02/2009,2.464341697086668,30.68,35.608,25.751
02/23/2009,2.1829017385122946,31.02,35.385,26.654
02/16/2009,2.137731274037969,31.29,35.565,27.014
02/09/2009,2.222447974644176,31.75,36.194,27.305
02/02/2009,2.7443232316911943,32.28,37.768,26.791
01/26/2009,3.3624477691110686,32.8,39.524,26.075
01/19/2009,3.698718021152735,33.28,40.677,25.882
01/12/2009,3.8728761921858545,33.76,41.505,26.014
01/05/2009,4.04912274449664,34.26,42.358,26.161
12/29/2008,4.220129737342207,34.64,43.08,26.199
12/22/2008,4.403585470954322,34.87,43.677,26.062
12/15/2008,4.515956155677333,35.18,44.211,26.148
12/08/2008,4.560331676534065,35.44,44.56,26.319
12/01/2008,4.5213770026397935,35.71,44.752,26.667
11/24/2008,4.471709404690784,36.01,44.953,27.066
11/17/2008,4.579622801061241,36.41,45.569,27.25
11/10/2008,4.37869729485837,37.0,45.757,28.242
11/03/2008,4.205102852487677,37.63,46.04,29.219
10/27/2008,4.074527579977831,38.15,46.299,30.0
10/20/2008,3.797207526591087,38.8,46.394,31.205
10/13/2008,2.9402559412404896,39.68,45.56,33.799
10/06/2008,2.597972286226317,40.31,45.505,35.114
09/29/2008,2.2016539237582267,40.83,45.233,36.426
09/22/2008,2.1237372718865197,41.24,45.487,36.992
09/15/2008,2.161309788068336,41.44,45.762,37.117
09/08/2008,2.2372661889010876,41.57,46.044,37.095
09/01/2008,2.3321374316279044,41.8,46.464,37.135
08/25/2008,2.340690069188999,42.03,46.711,37.348
08/18/2008,2.363841153715706,42.0,46.727,37.272
08/11/2008,2.347412405181501,42.02,46.714,37.325
08/04/2008,2.446497496422181,41.93,46.822,37.037
07/28/2008,2.574353316854545,41.83,46.978,36.681
07/21/2008,2.8599405588228577,41.66,47.379,35.94
07/14/2008,3.011930444083993,41.57,47.593,35.546
07/07/2008,3.0487358035749836,41.54,47.637,35.442
06/30/2008,3.1076985053251227,41.41,47.625,35.194
06/23/2008,3.153913442058929,41.3,47.607,34.992
06/16/2008,3.3203335675802212,41.0,47.64,34.359
06/09/2008,3.368855146782064,40.79,47.527,34.052
06/02/2008,3.4509078515660194,40.45,47.351,33.548
05/26/2008,3.4887676907469785,39.97,46.947,32.992
05/19/2008,3.3349392798070556,39.63,46.299,32.96
05/12/2008,3.191833328981951,39.45,45.833,33.066
05/05/2008,3.004660546550975,39.3,45.309,33.29
04/28/2008,2.9199666093981285,39.24,45.079,33.4
04/21/2008,2.7645035720722086,39.12,44.649,33.59
04/14/2008,2.6219077024182225,39.04,44.283,33.796
04/07/2008,2.4492856101320646,38.94,43.838,34.041
03/31/2008,2.533140343526193,39.05,44.116,33.983
03/24/2008,2.5664450120740945,39.09,44.222,33.957
03/17/2008,2.6206764393949893,39.25,44.491,34.008
03/10/2008,2.7146279671439326,39.51,44.939,34.08
03/03/2008,2.741280722582056,39.96,45.442,34.477
02/25/2008,2.574490240804964,40.22,45.368,35.071
02/18/2008,2.5023119309950146,40.32,45.324,35.315
02/11/2008,2.479264003691418,40.38,45.338,35.421
02/04/2008,2.5209968266540916,40.33,45.371,35.288
01/28/2008,2.5002939827148327,40.34,45.34,35.339
01/21/2008,2.8096254198736172,40.14,45.759,34.52
01/14/2008,2.988821674171947,40.04,46.017,34.062
01/07/2008,2.8987436933954682,40.1,45.897,34.302
12/31/2007,2.96470318919112,40.03,45.959,34.1
12/24/2007,3.0102574640718025,39.89,45.91,33.869
12/17/2007,2.98886684213265,39.74,45.717,33.762
12/10/2007,3.0192217540286768,39.43,45.468,33.391
12/03/2007,3.094255968726569,39.12,45.308,32.931
11/26/2007,2.937178918622425,38.84,44.714,32.965
11/19/2007,2.838348111137885,38.63,44.306,32.953
11/12/2007,2.7469073519141483,38.38,43.873,32.886
11/05/2007,2.718076525780685,38.09,43.526,32.653
10/29/2007,2.633916285685633,37.79,43.057,32.522
10/22/2007,2.353861720662452,37.54,42.247,32.832
10/15/2007,1.753510764152875,37.17,40.677,33.662
10/08/2007,1.53587922702275,37.02,40.091,33.948
10/01/2007,1.4193660556741516,36.9,39.738,34.061
09/24/2007,1.2375944408407784,36.74,39.215,34.264
09/17/2007,1.2157302332343303,36.71,39.141,34.278
09/10/2007,1.2273655730873336,36.75,39.204,34.295
09/03/2007,1.0891998209695035,36.94,39.118,34.761
08/27/2007,0.8947241194915889,37.11,38.899,35.32
08/20/2007,1.0296079350898573,37.03,39.089,34.97
08/13/2007,1.1875068420855523,36.91,39.285,34.534
08/06/2007,1.3930645175296081,36.71,39.496,33.923
07/30/2007,1.4007158883942163,36.48,39.281,33.678
07/23/2007,1.6121088672915358,36.31,39.534,33.085
07/16/2007,1.7383109618247246,36.2,39.676,32.723
07/09/2007,1.8314352295399359,35.95,39.612,32.287
07/02/2007,1.8541200743209698,35.72,39.428,32.011
06/25/2007,1.9422696131073045,35.5,39.384,31.615
06/18/2007,2.0171926655627117,35.37,39.404,31.335
06/11/2007,2.244758617312783,35.12,39.609,30.63
06/04/2007,2.362210035115421,34.75,39.474,30.025
05/28/2007,2.4883681902001555,34.42,39.396,29.443
05/21/2007,2.5053966751794015,34.03,39.04,29.019
05/14/2007,2.619200736866115,33.63,38.868,28.391
05/07/2007,2.6581248089583753,33.26,38.576,27.943
04/30/2007,2.6420851140718384,32.86,38.144,27.575
04/23/2007,2.4908620495723963,32.48,37.461,27.498
04/16/2007,2.209926469364988,32.09,36.509,27.67
04/09/2007,1.8493539412454285,31.72,35.418,28.021
04/02/2007,1.7452105890121112,31.5,34.99,28.009
03/26/2007,1.6400868879422217,31.3,34.58,28.019
03/19/2007,1.6660713520134727,31.05,34.382,27.717
03/12/2007,1.6293629890236245,30.73,33.988,27.471
03/05/2007,1.6937059957383394,30.47,33.857,27.082
02/26/2007,1.6495169747535188,30.21,33.509,26.91
02/19/2007,1.6321818219794022,29.94,33.204,26.675
02/12/2007,1.6211805112324784,29.58,32.822,26.337
02/05/2007,1.698872052274685,29.22,32.617,25.822
01/29/2007,1.726568127818882,28.81,32.263,25.356
01/22/2007,1.8421325956618866,28.52,32.204,24.835
01/15/2007,1.9348872706181102,28.25,32.119,24.38
01/08/2007,1.9442299246745485,28.02,31.908,24.131
01/01/2007,1.968971495476763,27.77,31.707,23.832
12/25/2006,1.9777803214715228,27.62,31.575,23.664
12/18/2006,1.9902829572701468,27.4,31.38,23.419
12/11/2006,1.9686216624836783,27.25,31.187,23.312
12/04/2006,1.894990765149002,27.05,30.839,23.26
11/27/2006,1.8528599515343842,26.76,30.465,23.054
11/20/2006,1.7720680009525596,26.45,29.994,22.905
11/13/2006,1.5854289640346553,26.17,29.34,22.999
11/06/2006,1.3031217326098128,25.89,28.496,23.283
10/30/2006,1.1593996291184503,25.73,28.048,23.411
10/23/2006,1.0482539053111128,25.6,27.696,23.503
10/16/2006,0.9501138089723775,25.52,27.42,23.619
10/09/2006,0.7828034555365733,25.43,26.995,23.864
10/02/2006,0.6395789630686737,25.35,26.629,24.07
09/25/2006,0.6319345298367545,25.35,26.613,24.086
09/18/2006,0.6766369041073652,25.4,26.753,24.046
09/11/2006,0.7442630583335437,25.51,26.998,24.021
09/04/2006,0.7524019869723895,25.56,27.064,24.055
08/28/2006,0.7509677090261603,25.62,27.121,24.118
08/21/2006,0.7684936564474685,25.65,27.186,24.113
08/14/2006,0.7996764970911674,25.73,27.329,24.13
08/07/2006,0.898661504683493,25.81,27.607,24.012
07/31/2006,0.9403250767686674,25.91,27.79,24.029
07/24/2006,1.0022100578222113,25.98,27.984,23.975
07/17/2006,1.03312390350819,26.04,28.106,23.973
07/10/2006,0.9659237806369612,26.16,28.091,24.228
07/03/2006,0.8225319142744554,26.31,27.955,24.664
06/26/2006,0.7431781414977168,26.44,27.926,24.953
06/19/2006,0.7705793275192375,26.62,28.161,25.078
06/12/2006,0.736037533010376,26.74,28.212,25.267
06/05/2006,0.6736625638997616,26.85,28.197,25.502
05/29/2006,0.6506381482821311,26.93,28.231,25.628
05/22/2006,0.6357593884481774,26.97,28.241,25.698
05/15/2006,0.5855510225420159,27.01,28.181,25.838
05/08/2006,0.5855510225420159,27.01,28.181,25.838
05/01/2006,0.5819965635637381,27.02,28.183,25.856
04/24/2006,0.6026265427277495,26.98,28.185,25.774
04/17/2006,0.5776796257442355,27.03,28.185,25.874
04/10/2006,0.5440622666570435,27.09,28.178,26.001
04/03/2006,0.5191170388265057,27.13,28.168,26.091
03/27/2006,0.5184809543271574,27.13,28.166,26.093
03/20/2006,0.5252439909223141,27.07,28.12,26.019
03/13/2006,0.5649524316258848,27.01,28.139,25.88
03/06/2006,0.6556123092194046,26.91,28.221,25.598
02/27/2006,0.867169966038954,26.76,28.494,25.025
02/20/2006,0.8839852939953247,26.72,28.487,24.952
02/13/2006,0.9624993506491318,26.63,28.554,24.705
02/06/2006,1.024482796341647,26.52,28.568,24.471
01/30/2006,1.052884727783626,26.3,28.405,24.194
01/23/2006,1.0878148969378936,26.13,28.305,23.954
01/16/2006,1.0841552010667108,26.0,28.168,23.831
01/09/2006,1.048948878639946,25.87,27.967,23.772
01/02/2006,1.0767183940102445,25.72,27.873,23.566
12/26/2005,1.074831382124657,25.61,27.759,23.46
12/19/2005,1.0747179862643037,25.55,27.699,23.4
12/12/2005,1.0565900340245502,25.48,27.593,23.366
12/05/2005,1.0455088474039806,25.41,27.501,23.318
11/28/2005,0.9573257021515718,25.31,27.224,23.395
11/21/2005,0.8347896441619288,25.19,26.859,23.52
11/14/2005,0.7334337052522195,25.13,26.596,23.663
11/07/2005,0.6314665470157543,25.06,26.322,23.797
10/31/2005,0.5470923139653856,24.98,26.074,23.885
10/24/2005,0.48374063298424724,24.92,25.887,23.952
10/17/2005,0.479461938009682,24.87,25.828,23.911
10/10/2005,0.46211876179181477,24.89,25.814,23.965
10/03/2005,0.4221818328635184,24.87,25.714,24.025
09/26/2005,0.4409393382314622,24.9,25.781,24.018
09/19/2005,0.4438665339941725,24.89,25.777,24.002
09/12/2005,0.42063790842005655,24.96,25.801,24.118
09/05/2005,0.43673504553676484,24.95,25.823,24.076
08/29/2005,0.43963336998003244,24.94,25.819,24.06
08/22/2005,0.4503526396058982,24.92,25.82,24.019
08/15/2005,0.5129839178765742,25.04,26.065,24.014
08/08/2005,0.5914864749087674,25.13,26.312,23.947
08/01/2005,0.5927531104937366,25.13,26.315,23.944
07/25/2005,0.600168726276203,25.16,26.36,23.959
07/18/2005,0.6122683235314398,25.2,26.424,23.975
07/11/2005,0.6666764582614267,25.26,26.593,23.926
07/04/2005,0.6823543800694767,25.3,26.664,23.935
06/27/2005,0.6814442383643725,25.27,26.632,23.907
06/20/2005,0.6852098218794005,25.23,26.6,23.859
06/13/2005,0.6780440619900744,25.25,26.606,23.893
06/06/2005,0.7478101363314086,25.19,26.685,23.694
05/30/2005,0.7587259057129919,25.18,26.697,23.662
05/23/2005,0.7657382059163562,25.17,26.701,23.638
05/16/2005,0.7732367037330806,25.12,26.666,23.573
05/09/2005,0.8189078092190842,25.17,26.807,23.532
05/02/2005,0.8952764936040708,25.28,27.07,23.489
04/25/2005,0.9191001033619787,25.32,27.158,23.481
04/18/2005,0.8839958993117556,25.41,27.177,23.642
04/11/2005,0.8856741782393792,25.49,27.261,23.718
04/04/2005,0.8560103679278657,25.54,27.252,23.827
03/28/2005,0.8448343032808266,25.46,27.149,23.77
03/21/2005,0.8155580911253347,25.39,27.021,23.758
03/14/2005,0.8195761099495273,25.38,27.019,23.74
03/07/2005,0.9181904758817744,25.28,27.116,23.443
02/28/2005,1.0340375960283068,25.14,27.208,23.071
02/21/2005,1.0897539859986745,24.97,27.149,22.79
02/14/2005,1.188754600411708,24.79,27.167,22.412
02/07/2005,1.2645799697923414,24.69,27.219,22.16
01/31/2005,1.356887062360018,24.57,27.283,21.856
01/24/2005,1.405977418026335,24.45,27.261,21.638
01/17/2005,1.442156804927952,24.4,27.284,21.515
01/10/2005,1.4765944771669706,24.34,27.293,21.386
01/03/2005,1.5166360802776648,24.25,27.283,21.216
12/27/2004,1.5796581908754814,24.13,27.289,20.97
12/20/2004,1.634382528663348,23.86,27.128,20.591
12/13/2004,1.6331491817957107,23.54,26.806,20.273
12/06/2004,1.5868467159747974,23.28,26.453,20.106
11/29/2004,1.5281647489717851,23.05,26.106,19.993
11/22/2004,1.3896550831051566,22.79,25.569,20.01
11/15/2004,1.2824512661306082,22.57,25.134,20.005
11/08/2004,1.1846608164365022,22.41,24.779,20.04
11/01/2004,1.0434114720473415,22.22,24.306,20.133
10/25/2004,0.865916422063931,22.06,23.791,20.328
10/18/2004,0.8721195445579696,21.91,23.654,20.165
10/11/2004,0.8935414092251127,21.78,23.567,19.992
10/04/2004,0.9006039640152603,21.64,23.441,19.838
09/27/2004,0.9784215604738075,21.5,23.456,19.543
09/20/2004,1.0485084644388905,21.32,23.417,19.222
09/13/2004,1.0762754062041928,21.18,23.332,19.027
09/06/2004,1.0613211106917644,21.03,23.152,18.907
08/30/2004,0.9780356588591237,20.91,22.866,18.953
08/23/2004,0.8742789886529359,20.77,22.518,19.021
08/16/2004,0.7783885597823238,20.62,22.176,19.063
08/09/2004,0.7202247912978281,20.49,21.93,19.049
08/02/2004,0.7984250121332624,20.38,21.976,18.783
07/26/2004,0.8387267135366563,20.32,21.997,18.642
07/19/2004,0.8493946373741714,20.22,21.918,18.521
07/12/2004,0.8186070485892485,20.17,21.807,18.532
07/05/2004,0.7855817907767467,20.12,21.691,18.548
06/28/2004,0.7535068015618706,20.08,21.587,18.572
06/21/2004,0.6753388038606996,20.01,21.36,18.659
06/14/2004,0.6011624156581983,19.94,21.142,18.737
06/07/2004,0.48014841455533325,19.87,20.83,18.909
05/31/2004,0.46258647840160677,19.84,20.765,18.914
05/24/2004,0.4453495817894076,19.82,20.71,18.929
05/17/2004,0.4322325762827234,19.8,20.664,18.935
05/10/2004,0.4455824839465755,19.78,20.671,18.888
05/03/2004,0.43682805541768976,19.79,20.663,18.916
04/26/2004,0.46053772918187746,19.76,20.681,18.838
04/19/2004,0.5488180481726165,19.7,20.797,18.602
04/12/2004,0.5769488712182395,19.59,20.743,18.436
04/05/2004,0.729675441549187,19.46,20.919,18.0
03/29/2004,0.8405132360647278,19.35,21.031,17.668
03/22/2004,0.8793911245856424,19.28,21.038,17.521
03/15/2004,0.9024321304120332,19.25,21.054,17.445
03/08/2004,0.9492562878380112,19.18,21.078,17.281
03/01/2004,0.9831136760314144,19.13,21.096,17.163
02/23/2004,0.9545057621617592,19.05,20.959,17.14
02/16/2004,0.9216188203373458,19.01,20.853,17.166
02/09/2004,0.8917854282281141,18.98,20.763,17.196
02/02/2004,0.8721130947302653,18.86,20.604,17.115
01/26/2004,0.8309429884173767,18.8,20.461,17.138
01/19/2004,0.7963604711435648,18.77,20.362,17.177
01/12/2004,0.7600074012797511,18.73,20.25,17.209
01/05/2004,0.7422070129013875,18.72,20.204,17.235
12/29/2003,0.684559164718434,18.67,20.039,17.3
12/22/2003,0.6746193371079724,18.65,19.999,17.3
12/15/2003,0.6553291157883953,18.6,19.91,17.289
12/08/2003,0.6446326473271424,18.57,19.859,17.28
12/01/2003,0.643398204846734,18.59,19.876,17.303
11/24/2003,0.6441981449833583,18.58,19.868,17.291
11/17/2003,0.5969181267142083,18.62,19.813,17.426
11/10/2003,0.5503090041058748,18.66,19.76,17.559
11/03/2003,0.5907950152125522,18.63,19.811,17.448
10/27/2003,0.6314101282051149,18.59,19.852,17.327
10/20/2003,0.6454804412218851,18.58,19.87,17.289
10/13/2003,0.6500086537885473,18.58,19.88,17.279
10/06/2003,0.6904898623441185,18.52,19.9,17.139
09/29/2003,0.7089322957800692,18.41,19.827,16.992
09/22/2003,0.6944026209627955,18.3,19.688,16.911
09/15/2003,0.7016943779167679,18.29,19.693,16.886
09/08/2003,0.7396392701851353,18.2,19.679,16.72
09/01/2003,0.8018618958399258,18.04,19.643,16.436
08/25/2003,0.9102231869162639,17.86,19.68,16.039
08/18/2003,0.9643086902024686,17.66,19.588,15.731
08/11/2003,0.9866597691200347,17.51,19.483,15.536
08/04/2003,0.9631082493676401,17.37,19.296,15.443
07/28/2003,0.9511079066015592,17.27,19.172,15.367
07/21/2003,1.0054557424372295,17.1,19.11,15.089
07/14/2003,1.0261024558980454,16.93,18.982,14.877
07/07/2003,1.0415403256715507,16.77,18.853,14.686
06/30/2003,1.050688464769648,16.61,18.711,14.508
06/23/2003,1.0647969289963226,16.43,18.559,14.3
06/16/2003,1.1947881611398732,16.24,18.629,13.85
06/09/2003,1.2230019419444924,16.08,18.526,13.633
06/02/2003,1.207581777769108,15.92,18.335,13.504
05/26/2003,1.127778236179436,15.78,18.035,13.524
05/19/2003,1.0601314776951016,15.67,17.79,13.549
05/12/2003,0.9990989690716329,15.59,17.588,13.591
05/05/2003,0.9086831130817827,15.49,17.307,13.672
04/28/2003,0.797614411855754,15.43,17.025,13.834
04/21/2003,0.7044350573331796,15.33,16.738,13.921
04/14/2003,0.67872214491646,15.3,16.657,13.942
04/07/2003,0.6781546652497498,15.27,16.626,13.913
03/31/2003,0.6982111070442808,15.22,16.616,13.823
03/24/2003,0.7027463980697448,15.14,16.545,13.734
03/17/2003,0.6931251690712149,15.03,16.416,13.643
03/10/2003,0.6378273669261928,14.91,16.185,13.634
03/03/2003,0.6658331247392248,14.85,16.181,13.518
02/24/2003,0.7647540454289864,14.74,16.269,13.21
02/17/2003,0.8342931139593568,14.64,16.308,12.971
02/10/2003,0.906969541936222,14.54,16.353,12.726
02/03/2003,0.9341914953584198,14.48,16.348,12.611
01/27/2003,0.9134645586994607,14.53,16.356,12.703
01/20/2003,0.9237626859751376,14.57,16.417,12.722
01/13/2003,0.9388084202860563,14.61,16.487,12.732
01/06/2003,0.9846979232231582,14.66,16.629,12.69
12/30/2002,1.0025118453165531,14.68,16.685,12.674
12/23/2002,1.0057142983969156,14.68,16.691,12.668
12/16/2002,1.0057142983969156,14.68,16.691,12.668
12/09/2002,0.9154158890908549,14.59,16.42,12.759
12/02/2002,0.9117352960152417,14.54,16.363,12.716
11/25/2002,0.8863605361251145,14.45,16.222,12.677
11/18/2002,0.8809518999355188,14.44,16.201,12.678
11/11/2002,0.8978376802072858,14.48,16.275,12.684
11/04/2002,0.9180379894100246,14.53,16.366,12.693
10/28/2002,1.1036796410190777,14.7,16.907,12.492
10/21/2002,1.1964985373998582,14.84,17.232,12.447
10/14/2002,1.4004865226056267,15.06,17.86,12.259
10/07/2002,1.5309527262459808,15.34,18.401,12.278
09/30/2002,1.5517413605366073,15.59,18.693,12.486
09/23/2002,1.5556738893482787,15.87,18.981,12.758
09/16/2002,1.5432826215570499,16.11,19.196,13.023
09/09/2002,1.6050533480230493,16.32,19.53,13.109
09/02/2002,1.6331128252512135,16.47,19.736,13.203
08/26/2002,1.6413253029183459,16.6,19.882,13.317
08/19/2002,1.7012050875776266,16.73,20.132,13.327
08/12/2002,1.6995951723866483,16.84,20.239,13.44
08/05/2002,1.6801558707453308,16.94,20.3,13.579
07/29/2002,1.6432049476556478,17.0,20.286,13.713
07/22/2002,1.55655950737516,17.11,20.223,13.996
07/15/2002,1.3917619228876756,17.27,20.053,14.486
07/08/2002,1.1650863701889231,17.44,19.77,15.109
07/01/2002,0.9882718502517415,17.55,19.526,15.573
06/24/2002,0.8503947612726694,17.63,19.33,15.929
06/17/2002,0.7214715864121057,17.69,19.132,16.247
06/10/2002,0.8116818958187996,17.62,19.243,15.996
06/03/2002,0.9528260596772111,17.54,19.445,15.634
05/27/2002,1.0860565132625466,17.37,19.542,15.197
05/20/2002,1.1391268586070649,17.19,19.468,14.911
05/13/2002,1.1228267898478375,17.16,19.405,14.914
05/06/2002,1.0761232503760894,17.08,19.232,14.927
04/29/2002,1.0378752333493655,17.02,19.095,14.944
04/22/2002,0.9684239773983293,16.89,18.826,14.953
04/15/2002,0.9220676493620193,16.83,18.674,14.985
04/08/2002,0.8905910958458993,16.76,18.541,14.978
04/01/2002,0.7642234620842254,16.64,18.168,15.111
03/25/2002,0.7217400847950731,16.56,18.003,15.116
03/18/2002,0.7221443761464873,16.46,17.904,15.015
03/11/2002,0.7563844921731271,16.4,17.912,14.887
03/04/2002,0.803615268645388,16.3,17.907,14.692
02/25/2002,0.8625644903426057,16.16,17.885,14.434
02/18/2002,0.8462372598745576,16.15,17.842,14.457
02/11/2002,0.8290220141829766,16.12,17.778,14.461
02/04/2002,0.8104574325650913,16.07,17.69,14.449
01/28/2002,0.8316790246242836,15.99,17.653,14.326
01/21/2002,0.8944069264043071,16.07,17.858,14.281
01/14/2002,0.9415983751047999,16.19,18.073,14.306
01/07/2002,0.9668699498898492,16.33,18.263,14.396
12/31/2001,0.9848331076888104,16.47,18.439,14.5
12/24/2001,0.9959524336031315,16.48,18.471,14.488
12/17/2001,0.9914667165366673,16.47,18.452,14.487
12/10/2001,0.981476566200131,16.45,18.412,14.487
12/03/2001,0.9807401541692887,16.46,18.421,14.498
11/26/2001,0.9730017985594889,16.44,18.386,14.493
11/19/2001,0.981233280112329,16.41,18.372,14.447
11/12/2001,0.9940774617704599,16.37,18.358,14.381
11/05/2001,0.993820909419801,16.37,18.357,14.382
10/29/2001,0.9749384595962968,16.43,18.379,14.48
10/22/2001,0.9530765971316263,16.52,18.426,14.613
10/15/2001,0.9047216422745729,16.64,18.449,14.83
10/08/2001,0.7607865995139506,16.74,18.261,15.218
10/01/2001,0.7653708251560155,16.75,18.28,15.219
09/24/2001,0.7867035655188046,16.82,18.393,15.246
09/17/2001,0.7643322248865346,16.9,18.428,15.371
09/10/2001,0.6390882176976822,16.97,18.248,15.691
09/03/2001,0.6640660735197967,16.9,18.228,15.571
08/27/2001,0.6676703902375785,16.81,18.145,15.474
08/20/2001,0.6955339675386101,16.68,18.071,15.288
08/13/2001,0.7032558211632522,16.55,17.956,15.143
08/06/2001,0.7165812933645423,16.43,17.863,14.996
07/30/2001,0.7966288345270967,16.34,17.933,14.746
07/23/2001,0.874609913046954,16.23,17.979,14.48
07/16/2001,0.888756153283903,16.17,17.947,14.392
07/09/2001,0.9517831948505922,16.07,17.973,14.166
07/02/2001,0.997922842708794,16.02,18.015,14.024
06/25/2001,1.0641728008176117,15.95,18.078,13.821
06/18/2001,1.1239005738943282,15.85,18.097,13.602
06/11/2001,1.1509468927800277,15.73,18.031,13.428
06/04/2001,1.1505884364098224,15.59,17.891,13.288
05/28/2001,1.1137521043751164,15.43,17.657,13.202
05/21/2001,1.0872045575695497,15.33,17.504,13.155
05/14/2001,1.0435701940933348,15.16,17.247,13.072
05/07/2001,0.8656630406803794,15.01,16.741,13.278
04/30/2001,0.6991324981718416,14.86,16.258,13.461
04/23/2001,0.6330965566167611,14.7,15.966,13.433
04/16/2001,0.7022722050601176,14.54,15.944,13.135
04/09/2001,0.7485001670006494,14.37,15.867,12.872
04/02/2001,0.8336268649701735,14.22,15.887,12.552
03/26/2001,0.901042451830101,14.07,15.872,12.267
03/19/2001,1.0662398885804263,13.87,16.002,11.737
03/12/2001,1.278519651784829,13.65,16.207,11.092
03/05/2001,1.4666522253076903,13.43,16.363,10.496
02/26/2001,1.5781520047194442,13.16,16.316,10.003
02/19/2001,1.5771572527810918,13.01,16.164,9.855
02/12/2001,1.5768913247272307,12.83,15.983,9.676
02/05/2001,1.5499600801310982,12.72,15.819,9.62
01/29/2001,1.529549361740248,12.58,15.639,9.52
01/22/2001,1.474669878311753,12.48,15.429,9.53
01/15/2001,1.4162353264906227,12.37,15.202,9.537
01/08/2001,1.3641283847204413,12.25,14.978,9.521
01/01/2001,1.2422751305568345,12.1,14.584,9.615
12/25/2000,1.1760814172496732,12.01,14.362,9.657
12/18/2000,1.0236912376297846,11.92,13.967,9.872
12/11/2000,0.8908928106119165,11.83,13.611,10.048
12/04/2000,0.8059381179718453,11.76,13.371,10.148
11/27/2000,0.7813113975874152,11.73,13.292,10.167
11/20/2000,0.9496196607063272,11.82,13.719,9.92
11/13/2000,1.1041495596159063,11.92,14.128,9.711
11/06/2000,1.1551412251322346,11.98,14.29,9.669
10/30/2000,1.2215302902507168,12.13,14.573,9.686
10/23/2000,1.228158173852212,12.31,14.766,9.853
10/16/2000,1.153669146679411,12.49,14.797,10.182
10/09/2000,1.0245377006240424,12.68,14.729,10.63
10/02/2000,1.00744292642313,12.77,14.784,10.755
09/25/2000,0.9557222399839821,12.9,14.811,10.988
09/18/2000,0.9444475898640432,12.98,14.868,11.091
09/11/2000,0.8897204617181738,13.09,14.869,11.31
09/04/2000,0.9054812256474456,13.18,14.99,11.369
08/28/2000,0.8765414993027999,13.22,14.973,11.466
08/21/2000,0.8529573553232307,13.24,14.945,11.534
08/14/2000,0.7816520965237668,13.29,14.853,11.726
08/07/2000,0.7316078184382669,13.36,14.823,11.896
07/31/2000,0.7305203624814302,13.36,14.821,11.898
07/24/2000,0.7366410251947688,13.35,14.823,11.876
07/17/2000,0.8227150174878297,13.31,14.955,11.664
07/10/2000,0.806796132861332,13.32,14.933,11.706
07/03/2000,0.8505997883846435,13.19,14.891,11.488
06/26/2000,0.8529419675452723,13.06,14.765,11.354
06/19/2000,0.94370612480793,12.94,14.827,11.052
06/12/2000,0.9519276495616673,12.81,14.713,10.906
06/05/2000,0.9669979317454616,12.67,14.603,10.736
05/29/2000,0.9422652227478209,12.63,14.514,10.745
05/22/2000,0.9232415718543009,12.61,14.456,10.763
05/15/2000,0.9089609452556255,12.59,14.407,10.772
05/08/2000,0.8710030137720536,12.53,14.272,10.787
05/01/2000,0.8389308672351973,12.49,14.167,10.812
04/24/2000,0.867680096579379,12.51,14.245,10.774
04/17/2000,0.7871721539790392,12.46,14.034,10.885
04/10/2000,0.8379327240297997,12.5,14.175,10.824
04/03/2000,0.85619507123085,12.57,14.282,10.857
03/27/2000,0.9086308381295456,12.63,14.447,10.812
03/20/2000,0.9153134708939885,12.64,14.47,10.809
03/13/2000,0.9577303900367788,12.69,14.605,10.774
03/06/2000,0.966773629139728,12.75,14.683,10.816
02/28/2000,0.909997939558107,12.82,14.639,11.0
02/21/2000,0.9064387734425311,12.85,14.662,11.037
02/14/2000,0.864078266131026,12.91,14.638,11.181
02/07/2000,0.825291615127647,12.96,14.61,11.309
01/31/2000,0.7988749902206228,12.97,14.567,11.372
01/24/2000,0.7364517974721768,13.03,14.502,11.557
01/17/2000,0.6066568222644497,13.14,14.353,11.926
01/10/2000,0.6002270403772226,13.16,14.36,11.959
01/03/2000,0.6113775429307164,13.12,14.342,11.897
12/27/1999,0.6110718042914434,13.12,14.342,11.897
12/20/1999,0.6150518270845149,13.18,14.41,11.949
12/13/1999,0.641876156279387,13.24,14.523,11.956
12/06/1999,0.6770155094235287,13.26,14.614,11.905
11/29/1999,0.7443680205382281,13.34,14.828,11.851
11/22/1999,0.8050085403273682,13.39,15.0,11.779
11/15/1999,0.8185200058642428,13.42,15.057,11.782
11/08/1999,0.9077058995071035,13.48,15.295,11.664
11/01/1999,0.9174891007527011,13.51,15.344,11.675
10/25/1999,0.967598186232281,13.56,15.495,11.624
10/18/1999,1.004503608754095,13.63,15.639,11.62
10/11/1999,0.9775792806724168,13.69,15.645,11.734
10/04/1999,0.9671194341962114,13.72,15.654,11.785
09/27/1999,0.9685859538523155,13.81,15.747,11.872
09/20/1999,0.9587198495911097,13.91,15.827,11.992
09/13/1999,0.8077739473392294,13.98,15.595,12.364
09/06/1999,0.7453908370781063,14.05,15.54,12.559
08/30/1999,0.7402001418535394,14.06,15.54,12.579
08/23/1999,0.7148793604518177,14.12,15.549,12.69
08/16/1999,0.6893783431469254,14.13,15.508,12.751
08/09/1999,0.7126727860666493,14.11,15.535,12.684
08/02/1999,0.75791325361152,14.07,15.585,12.554
07/26/1999,0.7610921429104364,14.05,15.572,12.527
07/19/1999,0.7639715308831868,14.06,15.587,12.532
07/12/1999,0.7551018143270483,14.0,15.51,12.489
07/05/1999,0.7342155678000843,13.95,15.418,12.481
06/28/1999,0.7737457592775551,13.89,15.437,12.342
06/21/1999,0.8044734302635485,13.72,15.328,12.111
06/14/1999,0.8001109298091111,13.7,15.3,12.099
06/07/1999,0.7451568626806038,13.63,15.12,12.139
05/31/1999,0.6942324898764104,13.57,14.958,12.181
05/24/1999,0.6939623548867765,13.56,14.947,12.172
05/17/1999,0.6936497675340202,13.54,14.927,12.152
05/10/1999,0.6527173967346054,13.51,14.815,12.204
05/03/1999,0.5984145720150874,13.47,14.666,12.273
04/26/1999,0.5920388500765809,13.53,14.714,12.345
04/19/1999,0.5898050525385486,13.53,14.709,12.35
04/12/1999,0.6221977177714494,13.58,14.824,12.335
04/05/1999,0.6103441652051735,13.57,14.79,12.349
03/29/1999,0.5864288106837863,13.61,14.782,12.437
03/22/1999,0.5574069429061681,13.66,14.774,12.545
03/15/1999,0.5326783738805246,13.71,14.775,12.644
03/08/1999,0.5374732551485701,13.69,14.764,12.615
03/01/1999,0.5795957643047438,13.71,14.869,12.55
02/22/1999,0.7370761493902784,13.61,15.084,12.135
02/15/1999,1.0289383181221312,13.44,15.497,11.382
02/08/1999,1.1528856458903458,13.35,15.655,11.044
02/01/1999,1.1546212853139335,13.35,15.659,11.04
01/25/1999,1.160334811595343,13.37,15.69,11.049
01/18/1999,1.158505118460855,13.35,15.667,11.032
01/11/1999,1.174899333560114,13.39,15.739,11.04
01/04/1999,1.1817322522466753,13.41,15.773,11.046
12/28/1998,1.232115836275145,13.5,15.964,11.035
12/21/1998,1.2725140150505219,13.55,16.095,11.004
12/14/1998,1.3065070987177987,13.59,16.203,10.976
12/07/1998,1.3611772724373556,13.66,16.382,10.937
11/30/1998,1.4813619034523602,13.78,16.742,10.817
11/23/1998,1.5774202894282805,13.88,17.034,10.725
11/16/1998,1.648703338990978,13.97,17.267,10.672
11/09/1998,1.6884421460328454,14.07,17.446,10.693
11/02/1998,1.6994669637859983,14.14,17.538,10.741
10/26/1998,1.703213240172821,14.17,17.576,10.763
10/19/1998,1.7048944957093386,14.26,17.669,10.85
10/12/1998,1.7335732056939506,14.3,17.767,10.832
10/05/1998,1.665649149731119,14.53,17.861,11.198
09/28/1998,1.3753759333360462,14.81,17.56,12.059
09/21/1998,1.0960665846562425,15.07,17.262,12.877
09/14/1998,0.8450685998781402,15.25,16.94,13.559
09/07/1998,0.7901151346481095,15.33,16.91,13.749
08/31/1998,0.6809914257903694,15.39,16.751,14.028
08/24/1998,0.6530658848845193,15.41,16.716,14.103
08/17/1998,0.573540709976197,15.46,16.607,14.312
08/10/1998,0.5663602616709617,15.48,16.612,14.347
08/03/1998,0.5669788615989138,15.47,16.603,14.336
07/27/1998,0.5568670837821177,15.51,16.623,14.396
07/20/1998,0.5592567666108298,15.51,16.628,14.391
07/13/1998,0.5423310160778194,15.43,16.514,14.345
07/06/1998,0.5439821973189931,15.34,16.427,14.252
06/29/1998,0.5473822453277052,15.26,16.354,14.165
06/22/1998,0.6303911563465971,15.16,16.42,13.899
06/15/1998,0.7058951126052652,15.09,16.501,13.678
06/08/1998,0.8691894669748362,14.99,16.728,13.251
06/01/1998,1.0275943029717516,14.86,16.915,12.804
05/25/1998,1.1416567408814262,14.68,16.963,12.396
05/18/1998,1.197746598408862,14.49,16.885,12.094
05/11/1998,1.1659220033947382,14.39,16.721,12.058
05/04/1998,1.1101280550008634,14.23,16.45,12.009
04/27/1998,1.0710254425082533,14.12,16.262,11.977
04/20/1998,1.023396072153885,14.05,16.096,12.003
04/13/1998,1.0264788612046523,14.06,16.112,12.007
04/06/1998,1.017454686951709,14.04,16.074,12.005
03/30/1998,0.994273750030644,13.99,15.978,12.001
03/23/1998,0.9650504165586374,13.89,15.82,11.959
03/16/1998,0.932924011107014,13.81,15.675,11.944
03/09/1998,0.8198633901449679,13.71,15.349,12.07
03/02/1998,0.7514181568873619,13.66,15.162,12.157
02/23/1998,0.7005695604292268,13.59,14.991,12.188
02/16/1998,0.6884438546461141,13.58,14.956,12.203
02/09/1998,0.6654011339034522,13.56,14.89,12.229
02/02/1998,0.6709341763541338,13.57,14.911,12.228
01/26/1998,0.6813533140008934,13.59,14.952,12.227
01/19/1998,0.6583235819109019,13.65,14.966,12.333
01/12/1998,0.6021683639149435,13.73,14.934,12.525
01/05/1998,0.5079264420169519,13.82,14.835,12.804
12/29/1997,0.3845328002914708,13.87,14.639,13.1
12/22/1997,0.38788521497989603,13.86,14.635,13.084
12/15/1997,0.3644480374484133,13.88,14.608,13.151
12/08/1997,0.4093608481523362,13.86,14.678,13.041
12/01/1997,0.5710260782135962,13.75,14.892,12.607
11/24/1997,0.723611692829794,13.59,15.037,12.142
11/17/1997,0.8409601381754074,13.45,15.131,11.768
11/10/1997,0.9391904950541184,13.31,15.188,11.431
11/03/1997,1.0566502370699589,13.21,15.323,11.096
10/27/1997,1.1642217417657172,13.08,15.408,10.751
10/20/1997,1.2379869530814935,12.95,15.425,10.474
10/13/1997,1.2461279139799413,12.8,15.292,10.307
10/06/1997,1.2875331123897358,12.68,15.255,10.104
09/29/1997,1.2982479058330887,12.51,15.106,9.913
09/22/1997,1.340325417575896,12.33,15.01,9.649
09/15/1997,1.3564967589345727,12.14,14.852,9.427
09/08/1997,1.3482872540745907,11.94,14.636,9.243
09/01/1997,1.3302570819206339,11.73,14.39,9.069
08/25/1997,1.3209156982941797,11.5,14.141,8.858
08/18/1997,1.2604805113527142,11.27,13.79,8.749
08/11/1997,1.2159963959650537,11.07,13.501,8.638
08/04/1997,1.1018979396931459,10.88,13.083,8.676
07/28/1997,0.9271403113876561,10.7,12.554,8.845
07/21/1997,0.8027650696187522,10.53,12.135,8.924
07/14/1997,0.7348875811986484,10.43,11.899,8.96
07/07/1997,0.703944001323969,10.35,11.757,8.942
06/30/1997,0.673300532451891,10.26,11.606,8.913
06/23/1997,0.6809010717424375,10.14,11.501,8.778
06/16/1997,0.7046250293595878,10.02,11.429,8.61
06/09/1997,0.7574868114363444,9.89,11.404,8.375
06/02/1997,0.7707722552738908,9.77,11.311,8.228
05/26/1997,0.706938837170515,9.64,11.053,8.226
05/19/1997,0.6391340876529744,9.53,10.808,8.251
05/12/1997,0.5879206345247631,9.42,10.595,8.244
05/05/1997,0.588161689078777,9.33,10.506,8.153
04/28/1997,0.5911689749978427,9.23,10.412,8.047
04/21/1997,0.5961758503159953,9.14,10.332,7.947
04/14/1997,0.5781997444655264,9.08,10.236,7.923
04/07/1997,0.582250929153402,9.04,10.204,7.875
03/31/1997,0.5838596102660296,9.01,10.177,7.842
03/24/1997,0.5755895382127788,8.97,10.121,7.818
03/17/1997,0.5592473017368971,8.91,10.028,7.791
03/10/1997,0.5231779133335046,8.82,9.866,7.773
03/03/1997,0.5254332388610374,8.74,9.79,7.689
02/24/1997,0.46733756643351493,8.64,9.574,7.705
02/17/1997,0.3784136268688008,8.54,9.296,7.783
02/10/1997,0.3003004087576306,8.47,9.07,7.869
02/03/1997,0.2927151097910731,8.43,9.015,7.844
01/27/1997,0.28937842524970653,8.39,8.968,7.811
01/20/1997,0.28938194052151905,8.39,8.968,7.811
01/13/1997,0.2972340483524726,8.4,8.994,7.805
01/06/1997,0.2954737746399839,8.4,8.99,7.809
12/30/1996,0.2820373007245673,8.39,8.954,7.825
12/23/1996,0.3185775831724511,8.42,9.057,7.782
12/16/1996,0.3428782240096329,8.44,9.125,7.754
12/09/1996,0.34239993282709624,8.46,9.144,7.775
12/02/1996,0.35606935560365205,8.44,9.152,7.727
11/25/1996,0.3556773446538309,8.42,9.131,7.708
11/18/1996,0.3532304290403079,8.4,9.106,7.693
11/11/1996,0.3503433829830385,8.4,9.1,7.699
11/04/1996,0.38627415976220825,8.34,9.112,7.567
10/28/1996,0.390870932661921,8.31,9.091,7.528
10/21/1996,0.5252916466116704,8.4,9.45,7.349
10/14/1996,0.6730820354904742,8.52,9.866,7.173
10/07/1996,0.7955999220713889,8.65,10.241,7.058
09/30/1996,0.8309527203758346,8.75,10.411,7.088
09/23/1996,0.8308450658817202,8.81,10.471,7.148
09/16/1996,0.8272988114943717,8.89,10.544,7.235
09/09/1996,0.8197682742702355,8.96,10.599,7.32
09/02/1996,0.8139711843793981,9.01,10.637,7.382
08/26/1996,0.8350486390025433,9.07,10.74,7.399
08/19/1996,0.8685362154222471,9.15,10.887,7.412
08/12/1996,0.9214800431913868,9.25,11.092,7.407
08/05/1996,0.9529414829883313,9.31,11.215,7.404
07/29/1996,0.9504564979524313,9.33,11.23,7.429
07/22/1996,0.9357940652194798,9.38,11.251,7.508
07/15/1996,0.8791731029780199,9.44,11.198,7.681
07/08/1996,0.8343569293174234,9.5,11.168,7.831
07/01/1996,0.7896709172180523,9.55,11.129,7.97
06/24/1996,0.755339620303344,9.59,11.1,8.079
06/17/1996,0.6002190862510122,9.68,10.88,8.479
06/10/1996,0.46240548169328616,9.75,10.674,8.825
06/03/1996,0.47253382630241403,9.71,10.655,8.764
05/27/1996,0.4888052091580039,9.63,10.607,8.652
05/20/1996,0.4624282219977496,9.55,10.474,8.625
05/13/1996,0.4569263184584578,9.51,10.423,8.596
05/06/1996,0.45784200113139467,9.5,10.415,8.584
04/29/1996,0.4705182095307258,9.48,10.421,8.538
04/22/1996,0.4780757011185572,9.45,10.406,8.493
04/15/1996,0.47788137701735145,9.45,10.405,8.494
04/08/1996,0.46930357765523156,9.41,10.348,8.471
04/01/1996,0.4486426729592271,9.34,10.237,8.442
03/25/1996,0.34741509466342996,9.24,9.934,8.545
03/18/1996,0.2517388925057072,9.16,9.663,8.656
03/11/1996,0.2539978494003443,9.13,9.637,8.622
03/04/1996,0.2741211547837926,9.08,9.628,8.531
02/26/1996,0.3132983322649516,9.03,9.656,8.403
02/19/1996,0.34958980605847184,8.98,9.679,8.28
02/12/1996,0.40662824852683316,8.91,9.723,8.096
02/05/1996,0.41874100885869775,8.86,9.697,8.022
01/29/1996,0.4139723360322523,8.81,9.637,7.982
01/22/1996,0.3989257036090806,8.76,9.557,7.962
01/15/1996,0.3925560329430692,8.72,9.505,7.934
01/08/1996,0.42502695326296663,8.68,9.53,7.829
01/01/1996,0.44088658745759096,8.64,9.521,7.758
12/25/1995,0.43357670716956187,8.59,9.457,7.722
12/18/1995,0.40479247954970704,8.53,9.339,7.72
12/11/1995,0.39733126733243634,8.49,9.284,7.695
12/04/1995,0.3893854074050542,8.43,9.208,7.651
11/27/1995,0.34188217780399144,8.35,9.033,7.666
11/20/1995,0.31179141424997575,8.29,8.913,7.666
11/13/1995,0.29990858273814036,8.25,8.849,7.65
11/06/1995,0.27672270958488393,8.21,8.763,7.656
10/30/1995,0.2615138772608444,8.17,8.693,7.646
10/23/1995,0.21574190714833313,8.12,8.551,7.688
10/16/1995,0.2003234459567826,8.09,8.49,7.689
10/09/1995,0.20971355106430295,8.06,8.479,7.64
10/02/1995,0.219535386669211,8.03,8.469,7.59
09/25/1995,0.24095583412733543,8.01,8.491,7.528
09/18/1995,0.24905812875712366,7.98,8.478,7.481
09/11/1995,0.23621680613368723,7.94,8.412,7.467
09/04/1995,0.23458614089498123,7.89,8.359,7.42
08/28/1995,0.23237301908784502,7.84,8.304,7.375
08/21/1995,0.2512699703506171,7.81,8.312,7.307
08/14/1995,0.3024161834293925,7.75,8.354,7.145
08/07/1995,0.3164652943057105,7.71,8.342,7.077
07/31/1995,0.3110787199407893,7.66,8.282,7.037
07/24/1995,0.32364356551614,7.6,8.247,6.952
07/17/1995,0.3512682842216189,7.54,8.242,6.837
07/10/1995,0.3690920041127957,7.5,8.238,6.761
07/03/1995,0.37042724656806764,7.47,8.21,6.729
06/26/1995,0.3706307562790762,7.41,8.151,6.668
06/19/1995,0.3769590926082033,7.34,8.093,6.586
06/12/1995,0.4070837112928986,7.27,8.084,6.455
06/05/1995,0.3989247748636327,7.21,8.007,6.412
05/29/1995,0.38406182510111575,7.15,7.918,6.381
05/22/1995,0.389840794427674,7.08,7.859,6.3
05/15/1995,0.36817501952196596,7.04,7.776,6.303
05/08/1995,0.3502375550965373,7.02,7.72,6.319
05/01/1995,0.3284906315254668,7.0,7.656,6.343
04/24/1995,0.2963760567252355,6.95,7.542,6.357
04/17/1995,0.31361760393829935,6.9,7.527,6.272
04/10/1995,0.30808521791867916,6.85,7.466,6.233
04/03/1995,0.28368036854883,6.82,7.387,6.252
03/27/1995,0.28229499464212965,6.81,7.374,6.245
03/20/1995,0.2721370316586848,6.8,7.344,6.255
03/13/1995,0.253401555835792,6.78,7.286,6.273
03/06/1995,0.250761493256042,6.78,7.281,6.278
02/27/1995,0.25038391421974376,6.77,7.27,6.269
02/20/1995,0.24811613006815983,6.77,7.266,6.273
02/13/1995,0.2343726701217529,6.75,7.218,6.281
02/06/1995,0.23169951229987518,6.74,7.203,6.276
01/30/1995,0.2551038602216752,6.72,7.23,6.209
01/23/1995,0.26342072716473924,6.72,7.246,6.193
01/16/1995,0.2996846334065195,6.69,7.289,6.09
01/09/1995,0.34104687361123837,6.65,7.332,5.967
01/02/1995,0.4070372808478358,6.61,7.424,5.795
12/26/1994,0.46007081791828525,6.55,7.47,5.629
12/19/1994,0.45604619228757953,6.49,7.402,5.577
12/12/1994,0.435004204002674,6.43,7.3,5.559
12/05/1994,0.43730263548256826,6.4,7.274,5.525
11/28/1994,0.44166450219595416,6.39,7.273,5.506
11/21/1994,0.45720342299681,6.36,7.274,5.445
11/14/1994,0.4596120320444189,6.32,7.239,5.4
11/07/1994,0.456158862130289,6.26,7.172,5.347
10/31/1994,0.44022577786858413,6.2,7.08,5.319
10/24/1994,0.409485085808995,6.16,6.978,5.341
10/17/1994,0.375641411455127,6.13,6.881,5.378
10/10/1994,0.35403693945688774,6.11,6.818,5.401
10/03/1994,0.31162373866571846,6.07,6.693,5.446
09/26/1994,0.26925358307736597,6.03,6.568,5.491
09/19/1994,0.2219427955577743,5.97,6.413,5.526
09/12/1994,0.22077707534977448,5.95,6.391,5.508
09/05/1994,0.21649140052205307,5.91,6.342,5.477
08/29/1994,0.23934723415991255,5.88,6.358,5.401
08/22/1994,0.25468737306745304,5.85,6.359,5.34
08/15/1994,0.25468737306745304,5.85,6.359,5.34
08/08/1994,0.27259651134965024,5.84,6.385,5.294
08/01/1994,0.27610183537962946,5.83,6.382,5.277
07/25/1994,0.2746658624583696,5.81,6.359,5.26
07/18/1994,0.2705367553586758,5.79,6.331,5.248
07/11/1994,0.26500476693825714,5.76,6.29,5.229
07/04/1994,0.27910898677756685,5.73,6.288,5.171
06/27/1994,0.28588190044142353,5.71,6.281,5.138
06/20/1994,0.2935015732496165,5.7,6.287,5.112
06/13/1994,0.3075200172346509,5.67,6.285,5.054
06/06/1994,0.31289069816790654,5.61,6.235,4.984
05/30/1994,0.30862633879823026,5.56,6.177,4.942
05/23/1994,0.2563518178207441,5.49,6.002,4.977
05/16/1994,0.23034268926970528,5.44,5.9,4.979
05/09/1994,0.21715626861778595,5.41,5.844,4.975
05/02/1994,0.21247551623657726,5.38,5.804,4.955
04/25/1994,0.21375925009224747,5.35,5.777,4.922
04/18/1994,0.20682451377919397,5.34,5.753,4.926
04/11/1994,0.20694104232848545,5.33,5.743,4.916
04/04/1994,0.20440972457297624,5.32,5.728,4.911
03/28/1994,0.19271750179991437,5.31,5.695,4.924
03/21/1994,0.1925700547852651,5.31,5.695,4.924
03/14/1994,0.18901898317364846,5.28,5.658,4.901
03/07/1994,0.1637316340845592,5.25,5.577,4.922
02/28/1994,0.14588436516638784,5.24,5.531,4.948
02/21/1994,0.13210874308689788,5.23,5.494,4.965
02/14/1994,0.13355616047191535,5.24,5.507,4.972
02/07/1994,0.12775900555342468,5.23,5.485,4.974
01/31/1994,0.14235283277827665,5.2,5.484,4.915
01/24/1994,0.1804977603739171,5.17,5.53,4.809
01/17/1994,0.19860491811634473,5.16,5.557,4.762
01/10/1994,0.21708155379948801,5.14,5.574,4.705
01/03/1994,0.23335440642936228,5.13,5.596,4.663
12/27/1993,0.2497122924487299,5.11,5.609,4.61
12/20/1993,0.26071846213875993,5.09,5.611,4.568
12/13/1993,0.27799254306545707,5.06,5.615,4.504
12/06/1993,0.2914627832159708,5.04,5.622,4.457
11/29/1993,0.2992096580994671,5.01,5.608,4.411
11/22/1993,0.3085618771008499,4.97,5.587,4.352
11/15/1993,0.3054673534111297,4.94,5.55,4.329
11/08/1993,0.2929390149843479,4.9,5.485,4.314
11/01/1993,0.2879950320752078,4.87,5.445,4.294
10/25/1993,0.2967824767401202,4.84,5.433,4.246
10/18/1993,0.2910657425737354,4.8,5.382,4.217
10/11/1993,0.270903149667921,4.75,5.291,4.208
10/04/1993,0.2427423417947516,4.7,5.185,4.214
09/27/1993,0.1891876819457335,4.66,5.038,4.281
09/20/1993,0.13169293451054997,4.63,4.893,4.366
09/13/1993,0.0,0.0,0.0,0.0
09/06/1993,0.0,0.0,0.0,0.0
08/30/1993,0.0,0.0,0.0,0.0
08/23/1993,0.0,0.0,0.0,0.0
08/16/1993,0.0,0.0,0.0,0.0
08/09/1993,0.0,0.0,0.0,0.0
08/02/1993,0.0,0.0,0.0,0.0
07/26/1993,0.0,0.0,0.0,0.0
07/19/1993,0.0,0.0,0.0,0.0
07/12/1993,0.0,0.0,0.0,0.0
07/05/1993,0.0,0.0,0.0,0.0
06/28/1993,0.0,0.0,0.0,0.0
06/21/1993,0.0,0.0,0.0,0.0
06/14/1993,0.0,0.0,0.0,0.0
06/07/1993,0.0,0.0,0.0,0.0
05/31/1993,0.0,0.0,0.0,0.0
05/24/1993,0.0,0.0,0.0,0.0
05/17/1993,0.0,0.0,0.0,0.0
05/10/1993,0.0,0.0,0.0,0.0
