12/01/2022,102.62,106.35,116.84,120.55,113.12
11/01/2022,102.18,107.54,118.88,120.61,112.73
10/01/2022,101.59,108.66,120.66,120.79,112.43
09/01/2022,103.18,110.99,122.2,121.05,112.23
08/01/2022,107.14,113.45,124.1,121.2,112.09
07/01/2022,110.08,115.24,125.8,121.14,111.77
06/01/2022,112.9,116.4,126.73,121.4,111.32
05/01/2022,115.72,119.56,127.27,121.82,111.05
04/01/2022,118.8,121.74,127.58,121.98,110.68
03/01/2022,119.75,124.34,127.76,122.09,110.1
02/01/2022,120.41,127.33,127.64,122.13,109.43
01/01/2022,119.9,130.22,127.15,122.14,108.64
12/01/2021,123.4,132.66,126.85,122.26,107.9
11/01/2021,124.69,133.41,126.08,122.32,107.08
10/01/2021,128.94,134.75,125.08,122.11,106.31
09/01/2021,134.24,136.36,124.09,121.79,105.49
08/01/2021,140.54,137.06,123.9,121.36,104.79
07/01/2021,141.91,134.99,122.94,120.26,103.84
06/01/2021,142.14,133.42,122.1,119.27,103.0
05/01/2021,140.57,131.17,120.97,117.71,101.97
04/01/2021,138.48,127.96,119.53,116.27,100.8
03/01/2021,133.58,124.08,118.1,114.64,99.55
02/01/2021,128.07,121.05,117.06,113.51,98.5
01/01/2021,124.69,118.75,116.78,112.66,97.56
12/01/2020,121.78,115.41,115.79,111.64,96.56
11/01/2020,117.44,111.83,114.51,110.19,95.49
10/01/2020,114.57,110.75,113.51,109.06,94.62
09/01/2020,114.03,110.9,112.9,108.37,93.95
08/01/2020,112.81,110.79,112.19,107.59,93.16
07/01/2020,109.04,110.77,110.98,106.63,92.31
06/01/2020,106.21,111.09,110.42,105.7,91.52
05/01/2020,106.92,112.12,109.92,104.85,90.72
04/01/2020,107.76,113.08,109.73,104.08,89.92
03/01/2020,108.77,114.8,109.62,103.41,89.17
02/01/2020,112.49,116.18,109.76,102.97,88.57
01/01/2020,115.97,117.19,109.38,102.39,87.99
12/01/2019,117.31,116.28,108.22,101.24,87.11
11/01/2019,118.39,114.89,107.11,100.28,86.3
10/01/2019,120.84,113.59,106.0,99.37,85.52
09/01/2019,119.86,111.19,104.56,98.11,84.59
08/01/2019,118.42,109.75,103.01,96.73,83.62
07/01/2019,115.25,107.72,101.21,95.14,82.66
06/01/2019,111.39,106.39,99.58,93.54,81.66
05/01/2019,106.35,104.43,97.72,91.84,80.7
04/01/2019,102.51,103.34,96.37,90.51,79.92
03/01/2019,101.07,101.56,94.99,89.18,79.19
02/01/2019,100.19,100.15,93.71,88.21,78.52
01/01/2019,101.39,99.33,92.97,87.42,77.93
12/01/2018,102.51,98.4,92.27,86.72,77.34
11/01/2018,104.18,97.93,91.58,86.23,76.9
10/01/2018,102.04,96.27,90.22,85.33,76.25
09/01/2018,100.12,94.7,88.85,84.47,75.62
08/01/2018,97.27,92.77,87.11,83.49,74.83
07/01/2018,94.29,91.01,85.55,82.46,74.06
06/01/2018,91.69,89.39,84.09,81.47,73.33
05/01/2018,90.5,88.42,82.99,80.78,72.69
04/01/2018,89.29,87.28,82.25,80.19,72.1
03/01/2018,88.27,86.61,81.47,79.52,71.48
02/01/2018,87.72,86.13,80.89,78.73,70.93
01/01/2018,87.1,85.22,80.37,77.99,70.34
12/01/2017,86.34,84.18,79.86,77.34,69.74
11/01/2017,85.27,83.0,79.35,76.59,69.1
10/01/2017,84.96,81.46,78.85,75.77,68.42
09/01/2017,84.54,80.09,78.18,74.93,67.83
08/01/2017,83.34,78.78,77.51,74.17,67.25
07/01/2017,82.02,77.56,76.96,73.58,66.7
06/01/2017,80.73,77.21,76.64,72.99,66.18
05/01/2017,77.96,76.32,75.98,72.32,65.59
04/01/2017,75.64,75.64,75.02,71.66,65.02
03/01/2017,74.22,75.52,74.38,71.06,64.59
02/01/2017,73.11,75.55,73.92,70.52,64.22
01/01/2017,73.69,75.7,73.38,70.17,63.85
12/01/2016,74.69,76.24,72.92,69.77,63.51
11/01/2016,75.64,76.27,72.35,69.56,63.16
10/01/2016,76.83,76.24,71.87,69.34,62.78
09/01/2016,77.99,76.36,71.59,69.21,62.39
08/01/2016,77.71,76.07,70.87,68.83,61.85
07/01/2016,77.8,75.63,70.32,68.44,61.39
06/01/2016,76.9,74.41,69.67,67.96,60.94
05/01/2016,75.66,73.23,68.83,67.58,60.49
04/01/2016,74.73,72.28,68.0,67.17,60.09
03/01/2016,74.43,71.06,67.41,66.77,59.7
02/01/2016,73.46,69.6,66.54,66.16,59.23
01/01/2016,71.91,68.43,66.21,65.67,58.8
12/01/2015,70.8,67.49,65.89,65.18,58.39
11/01/2015,69.83,66.82,65.63,64.6,57.97
10/01/2015,67.69,65.68,65.21,64.01,57.49
09/01/2015,65.73,65.01,64.84,63.43,57.01
08/01/2015,64.95,64.94,64.73,63.14,56.67
07/01/2015,64.18,64.42,64.75,62.69,56.25
06/01/2015,63.8,63.71,64.61,62.15,55.83
05/01/2015,63.67,63.75,64.63,61.62,55.4
04/01/2015,64.28,63.49,64.45,61.08,55.0
03/01/2015,64.92,63.98,64.29,60.72,54.68
02/01/2015,64.66,64.29,64.03,60.33,54.28
01/01/2015,63.63,64.44,63.5,59.82,53.83
12/01/2014,63.84,64.74,63.18,59.38,53.37
11/01/2014,62.69,64.67,62.64,58.86,52.85
10/01/2014,63.04,64.53,62.24,58.37,52.36
09/01/2014,63.91,65.09,61.83,58.11,51.91
08/01/2014,65.25,65.51,61.37,57.92,51.52
07/01/2014,65.64,65.51,60.55,57.54,51.03
06/01/2014,66.66,65.41,59.88,57.25,50.59
05/01/2014,66.02,64.59,59.09,56.75,50.04
04/01/2014,66.26,63.77,58.35,56.23,49.44
03/01/2014,65.76,62.55,57.51,55.58,48.84
02/01/2014,65.37,61.61,56.7,54.86,48.26
01/01/2014,64.16,60.61,55.95,54.34,47.62
12/01/2013,63.17,59.96,55.29,53.91,47.07
11/01/2013,61.28,58.57,54.63,53.4,46.53
10/01/2013,59.34,57.23,54.12,53.02,46.0
09/01/2013,57.85,55.59,53.55,52.62,45.44
08/01/2013,57.05,54.34,53.16,52.29,45.09
07/01/2013,56.75,53.59,52.83,51.94,44.78
06/01/2013,55.86,52.92,52.45,51.59,44.45
05/01/2013,55.13,52.47,52.09,51.34,44.23
04/01/2013,53.33,51.8,51.49,50.97,44.03
03/01/2013,51.64,51.29,51.21,50.6,43.83
02/01/2013,50.43,50.62,50.89,50.21,43.53
01/01/2013,49.98,50.68,50.81,49.8,43.25
12/01/2012,49.81,51.0,50.91,49.51,43.02
11/01/2012,50.26,51.51,51.14,49.18,42.91
10/01/2012,50.94,51.99,51.27,48.92,42.82
09/01/2012,50.82,52.07,51.11,48.65,42.71
08/01/2012,51.38,51.98,50.93,48.24,42.48
07/01/2012,52.2,51.71,50.77,47.83,42.24
06/01/2012,52.76,51.18,50.56,47.35,42.01
05/01/2012,53.03,51.12,50.25,46.84,41.75
04/01/2012,53.33,51.16,50.0,46.35,41.53
03/01/2012,52.59,50.94,49.35,45.71,41.24
02/01/2012,51.23,50.81,48.77,45.13,40.88
01/01/2012,49.6,50.77,48.02,44.52,40.55
12/01/2011,49.22,50.55,47.39,43.94,40.18
11/01/2011,48.99,50.15,46.94,43.32,39.81
10/01/2011,49.3,49.87,46.37,42.66,39.47
09/01/2011,50.39,49.83,45.89,42.1,39.13
08/01/2011,51.94,49.93,45.43,41.65,38.81
07/01/2011,51.87,49.37,44.7,40.9,38.4
06/01/2011,51.3,48.83,43.95,40.23,37.98
05/01/2011,50.44,47.77,43.1,39.66,37.52
04/01/2011,49.28,46.73,42.3,38.99,37.06
03/01/2011,47.92,45.27,41.39,38.25,36.63
02/01/2011,46.87,44.24,40.63,37.89,36.25
01/01/2011,46.37,43.73,39.91,37.63,35.89
12/01/2010,45.09,42.86,39.06,37.32,35.56
11/01/2010,44.19,41.95,38.23,37.13,35.2
10/01/2010,42.62,40.94,37.51,37.1,34.9
09/01/2010,41.61,40.02,36.67,37.07,34.58
08/01/2010,41.09,39.07,35.92,36.85,34.23
07/01/2010,40.63,38.43,35.6,36.71,33.95
06/01/2010,39.72,37.86,35.12,36.53,33.65
05/01/2010,39.25,37.52,34.75,36.63,33.44
04/01/2010,38.43,37.02,34.71,36.71,33.19
03/01/2010,37.04,36.1,34.58,36.77,32.88
02/01/2010,36.24,35.26,34.54,36.72,32.66
01/01/2010,36.0,34.51,34.71,36.64,32.44
12/01/2009,35.78,34.08,35.18,36.67,32.26
11/01/2009,35.62,33.31,35.6,36.67,32.1
10/01/2009,35.15,32.78,35.74,36.72,31.94
09/01/2009,34.29,32.77,35.85,36.76,31.74
08/01/2009,33.02,32.38,35.86,36.63,31.48
07/01/2009,32.37,31.98,36.19,36.58,31.29
06/01/2009,31.0,32.39,36.55,36.43,31.06
05/01/2009,30.41,33.06,37.1,36.29,30.86
04/01/2009,31.26,33.83,37.44,36.28,30.68
03/01/2009,31.74,34.92,37.71,36.16,30.49
02/01/2009,31.58,36.28,37.97,35.97,30.29
01/01/2009,33.79,37.88,38.35,35.89,30.16
12/01/2008,35.7,38.7,38.68,35.72,29.98
11/01/2008,36.39,38.92,38.75,35.38,29.72
10/01/2008,38.09,39.35,38.75,35.14,29.46
09/01/2008,40.97,40.4,38.88,35.0,29.25
08/01/2008,41.98,40.71,38.45,34.62,28.9
07/01/2008,41.69,41.15,37.91,34.16,28.56
06/01/2008,41.45,41.06,37.51,33.81,28.22
05/01/2008,40.6,40.5,36.78,33.28,27.82
04/01/2008,39.83,39.67,35.82,32.7,27.37
03/01/2008,39.45,38.81,34.9,32.08,26.92
02/01/2008,40.6,38.67,34.24,31.62,26.54
01/01/2008,40.68,38.59,33.6,31.19,26.17
12/01/2007,40.4,38.16,33.03,30.77,25.78
11/01/2007,39.5,37.36,32.3,30.25,25.36
10/01/2007,38.17,36.19,31.57,29.68,24.9
09/01/2007,36.74,34.67,30.66,28.99,24.39
08/01/2007,36.5,33.95,30.18,28.6,23.98
07/01/2007,35.92,33.06,29.67,28.25,23.64
06/01/2007,35.22,31.97,29.22,27.84,23.29
05/01/2007,34.21,30.98,28.72,27.53,22.95
04/01/2007,32.6,29.8,28.09,27.16,22.64
03/01/2007,31.4,28.62,27.5,26.72,22.34
02/01/2007,30.2,27.91,27.07,26.34,22.07
01/01/2007,28.71,27.24,26.7,26.0,21.81
12/01/2006,27.76,26.95,26.42,25.69,21.57
11/01/2006,27.01,26.65,26.15,25.43,21.37
10/01/2006,25.84,26.41,25.92,25.09,21.13
09/01/2006,25.61,26.27,25.84,24.83,20.92
08/01/2006,25.76,26.47,25.78,24.62,20.77
07/01/2006,26.14,26.46,25.81,24.43,20.63
06/01/2006,26.29,26.37,25.84,24.24,20.48
05/01/2006,26.98,26.38,25.77,24.07,20.34
04/01/2006,26.94,26.24,25.55,23.77,20.17
03/01/2006,27.18,26.16,25.38,23.5,20.0
02/01/2006,26.77,25.9,25.06,23.19,19.79
01/01/2006,26.45,25.66,24.82,22.95,19.59
12/01/2005,25.78,25.43,24.43,22.63,19.37
11/01/2005,25.54,25.4,24.1,22.36,19.18
10/01/2005,25.14,25.09,23.69,22.03,18.93
09/01/2005,25.02,25.16,23.42,21.75,18.68
08/01/2005,24.86,25.3,23.18,21.46,18.46
07/01/2005,25.09,25.16,22.91,21.14,18.24
06/01/2005,25.26,24.87,22.54,20.79,18.03
05/01/2005,25.03,24.6,22.16,20.46,17.84
04/01/2005,25.31,24.21,21.83,20.13,17.64
03/01/2005,25.74,23.99,21.6,19.79,17.48
02/01/2005,25.24,23.42,21.24,19.37,17.26
01/01/2005,24.47,22.81,20.85,19.04,17.03
12/01/2004,24.17,22.3,20.51,18.73,16.81
11/01/2004,23.12,21.68,20.05,18.37,16.58
10/01/2004,22.23,21.06,19.54,18.11,16.37
09/01/2004,21.61,20.66,19.13,17.95,16.2
08/01/2004,21.14,20.21,18.75,17.8,16.06
07/01/2004,20.44,19.73,18.39,17.62,15.9
06/01/2004,20.25,19.45,18.08,17.45,15.78
05/01/2004,19.89,19.22,17.69,17.31,15.67
04/01/2004,19.72,19.05,17.34,17.18,15.56
03/01/2004,19.28,18.89,17.16,17.02,15.47
02/01/2004,19.02,18.72,16.95,16.91,15.36
01/01/2004,18.65,18.42,16.71,16.84,15.25
12/01/2003,18.56,18.03,16.64,16.72,15.15
11/01/2003,18.38,17.59,16.59,16.61,15.06
10/01/2003,18.49,17.28,16.6,16.58,15.0
09/01/2003,18.41,17.05,16.57,16.5,14.92
08/01/2003,18.18,16.71,16.45,16.4,14.81
07/01/2003,17.5,16.15,16.35,16.23,14.72
06/01/2003,16.81,15.63,16.24,16.1,14.66
05/01/2003,16.08,15.44,16.09,15.99,14.62
04/01/2003,15.7,15.18,16.01,15.83,14.6
03/01/2003,15.25,15.0,16.05,15.6,14.58
02/01/2003,14.8,15.25,16.06,15.46,14.56
01/01/2003,14.46,15.6,16.11,15.34,14.54
12/01/2002,14.8,15.91,16.22,15.28,14.52
11/01/2002,14.67,16.08,16.23,15.21,14.49
10/01/2002,14.76,16.19,16.24,15.15,14.48
09/01/2002,15.7,16.55,16.26,15.16,14.47
08/01/2002,16.73,16.84,16.34,15.16,14.48
07/01/2002,17.03,16.74,16.27,15.02,14.45
06/01/2002,17.49,16.84,16.15,14.89,14.41
05/01/2002,17.63,17.09,15.9,14.8,14.34
04/01/2002,17.39,16.87,15.56,14.63,14.22
03/01/2002,16.96,16.63,15.22,14.46,14.07
02/01/2002,16.46,16.53,14.96,14.32,13.94
01/01/2002,16.18,16.38,14.77,14.17,13.82
12/01/2001,16.55,16.3,14.64,14.12,13.69
11/01/2001,16.35,15.98,14.47,14.03,13.55
10/01/2001,16.31,15.84,14.32,13.95,13.42
09/01/2001,16.6,15.8,14.17,13.91,13.3
08/01/2001,16.58,15.46,13.92,13.81,13.17
07/01/2001,16.04,14.71,13.65,13.67,13.02
06/01/2001,15.61,14.25,13.51,13.58,12.88
05/01/2001,15.36,13.8,13.37,13.51,12.74
04/01/2001,15.01,13.4,13.21,13.42,12.64
03/01/2001,14.35,13.17,13.07,13.34,12.53
02/01/2001,13.37,12.97,13.03,13.21,12.45
01/01/2001,12.89,12.96,13.06,13.21,12.36
12/01/2000,12.23,12.8,13.0,13.22,12.27
11/01/2000,11.79,12.53,12.97,13.25,12.18
10/01/2000,11.99,12.38,12.99,13.38,12.12
09/01/2000,12.58,12.6,13.16,13.55,12.09
08/01/2000,13.03,12.76,13.24,13.65,12.03
07/01/2000,13.37,12.94,13.36,13.75,11.97
06/01/2000,13.27,13.03,13.44,13.75,11.9
05/01/2000,12.77,12.97,13.43,13.77,11.81
04/01/2000,12.63,13.09,13.34,13.8,11.71
03/01/2000,12.49,13.16,13.33,13.78,11.6
02/01/2000,12.51,13.2,13.43,13.8,11.5
01/01/2000,12.79,13.4,13.61,13.87,11.41
12/01/1999,13.16,13.6,13.87,13.93,11.34
11/01/1999,13.55,13.72,14.03,13.89,11.25
10/01/1999,13.83,13.73,14.1,13.81,11.13
09/01/1999,13.9,13.79,14.15,13.69,11.02
08/01/1999,14.02,13.84,14.12,13.56,10.91
07/01/1999,14.04,13.89,14.17,13.47,10.79
06/01/1999,13.89,13.59,14.16,13.26,10.65
05/01/1999,13.62,13.5,14.09,13.06,10.5
04/01/1999,13.67,13.67,14.1,12.89,10.37
03/01/1999,13.67,13.82,14.11,12.69,10.23
02/01/1999,13.74,14.14,14.09,12.52,10.1
01/01/1999,13.28,14.34,13.97,12.36,9.97
12/01/1998,13.39,14.47,13.85,12.18,9.83
11/01/1998,13.66,14.51,13.65,11.96,9.68
10/01/1998,13.98,14.39,13.42,11.85,9.54
09/01/1998,14.54,14.44,13.25,11.72,9.4
08/01/1998,15.39,14.73,13.1,11.69,9.3
07/01/1998,15.56,14.68,12.83,11.52,9.14
06/01/1998,15.36,14.54,12.5,11.31,8.96
05/01/1998,14.8,14.39,12.12,11.11,8.78
04/01/1998,14.34,14.04,11.71,10.87,8.58
03/01/1998,14.06,13.61,11.37,10.63,0.0
02/01/1998,13.81,13.22,11.03,10.41,0.0
01/01/1998,13.72,12.78,10.69,10.19,0.0
12/01/1997,13.98,12.46,10.58,10.04,0.0
11/01/1997,13.75,12.06,10.36,9.85,0.0
10/01/1997,13.16,11.48,10.16,9.63,0.0
09/01/1997,12.63,10.99,9.93,9.42,0.0
08/01/1997,11.84,10.45,9.7,9.19,0.0
07/01/1997,10.94,9.85,9.46,8.96,0.0
06/01/1997,10.38,9.38,9.28,8.75,0.0
05/01/1997,9.79,9.12,9.14,8.61,0.0
04/01/1997,9.34,8.84,9.0,8.46,0.0
03/01/1997,9.06,8.6,8.9,8.35,0.0
02/01/1997,8.76,8.7,8.83,8.26,0.0
01/01/1997,8.38,8.65,8.74,8.12,0.0
12/01/1996,8.45,8.85,8.7,8.04,0.0
11/01/1996,8.35,8.88,8.63,7.94,0.0
10/01/1996,8.14,8.95,8.56,7.85,0.0
09/01/1996,8.64,9.08,8.51,7.77,0.0
08/01/1996,8.92,9.18,8.43,7.68,0.0
07/01/1996,9.25,9.16,8.35,7.58,0.0
06/01/1996,9.41,9.16,8.26,7.47,0.0
05/01/1996,9.76,9.19,8.22,7.39,0.0
04/01/1996,9.51,8.97,8.03,7.22,0.0
03/01/1996,9.43,8.83,7.85,7.08,0.0
02/01/1996,9.07,8.55,7.64,6.91,0.0
01/01/1996,8.9,8.38,7.47,6.77,0.0
12/01/1995,8.62,8.16,7.31,6.61,0.0
11/01/1995,8.42,7.94,7.12,6.45,0.0
10/01/1995,8.22,7.69,6.94,6.3,0.0
09/01/1995,8.04,7.55,6.79,0.0,0.0
08/01/1995,7.86,7.37,6.63,0.0,0.0
07/01/1995,7.7,7.25,6.49,0.0,0.0
06/01/1995,7.47,7.1,6.35,0.0,0.0
05/01/1995,7.15,6.88,6.21,0.0,0.0
04/01/1995,7.06,6.73,6.09,0.0,0.0
03/01/1995,6.87,6.56,5.96,0.0,0.0
02/01/1995,6.8,6.45,5.84,0.0,0.0
01/01/1995,6.73,6.3,5.71,0.0,0.0
12/01/1994,6.61,6.19,5.6,0.0,0.0
11/01/1994,6.39,6.02,0.0,0.0,0.0
10/01/1994,6.24,5.9,0.0,0.0,0.0
09/01/1994,6.1,5.74,0.0,0.0,0.0
08/01/1994,5.87,5.6,0.0,0.0,0.0
07/01/1994,5.76,5.54,0.0,0.0,0.0
06/01/1994,5.65,5.46,0.0,0.0,0.0
05/01/1994,5.55,5.37,0.0,0.0,0.0
04/01/1994,5.37,5.22,0.0,0.0,0.0
03/01/1994,5.33,5.12,0.0,0.0,0.0
02/01/1994,5.32,5.02,0.0,0.0,0.0
01/01/1994,5.26,0.0,0.0,0.0,0.0
12/01/1993,5.18,0.0,0.0,0.0,0.0
11/01/1993,5.07,0.0,0.0,0.0,0.0
10/01/1993,4.91,0.0,0.0,0.0,0.0
09/01/1993,4.72,0.0,0.0,0.0,0.0
08/01/1993,0.0,0.0,0.0,0.0,0.0
07/01/1993,0.0,0.0,0.0,0.0,0.0
06/01/1993,0.0,0.0,0.0,0.0,0.0
05/01/1993,0.0,0.0,0.0,0.0,0.0
