05/01/2023	118.51
04/28/2023	116.9
04/27/2023	115.75
04/26/2023	118.07
04/25/2023	120.4
04/14/2023	119.78
04/11/2023	119.1
04/10/2023	119.06
04/03/2023	118.19
03/31/2023	115.95
03/29/2023	115.02
03/24/2023	111.72
03/20/2023	110.1
03/17/2023	112.68
03/14/2023	111.97
03/09/2023	115.33
03/07/2023	116.83
03/02/2023	117.46
02/28/2023	116.69
02/27/2023	114.77
02/24/2023	114.06
02/21/2023	122.52
02/17/2023	110.9
02/16/2023	110.39
02/09/2023	110.56
02/03/2023	117.3
02/02/2023	116.79
02/01/2023	115.64
01/31/2023	113.25
01/30/2023	110.49
01/27/2023	113.0
01/26/2023	112.64
01/24/2023	113.36
01/23/2023	113.29
01/20/2023	111.99
01/19/2023	111.97
01/13/2023	113.5
01/11/2023	113.43
01/04/2023	110.26
01/03/2023	109.98
12/29/2022	110.0
12/28/2022	110.87
12/23/2022	109.15
12/22/2022	110.64
12/19/2022	106.63
12/15/2022	108.24
12/14/2022	108.21
12/13/2022	108.98
12/09/2022	107.8
12/07/2022	107.46
12/05/2022	108.05
12/02/2022	107.09
12/01/2022	106.93
11/28/2022	105.91
11/23/2022	106.0
11/22/2022	104.34
11/21/2022	106.04
11/18/2022	104.61
11/17/2022	102.38
11/16/2022	104.69
11/15/2022	103.61
11/11/2022	101.56
11/10/2022	99.12
11/09/2022	98.36
11/08/2022	99.73
11/07/2022	98.77
11/04/2022	96.52
11/03/2022	94.75
11/01/2022	99.15
10/28/2022	99.09
10/27/2022	99.09
10/26/2022	99.21
10/24/2022	97.52
10/21/2022	96.07
10/20/2022	98.21
10/19/2022	105.0
10/18/2022	97.32
10/14/2022	95.27
10/13/2022	92.53
10/11/2022	94.37
10/10/2022	94.2
10/06/2022	98.18
10/03/2022	97.0
09/28/2022	97.22
09/27/2022	97.41
09/26/2022	98.08
09/22/2022	99.67
09/20/2022	104.53
09/19/2022	102.64
09/16/2022	105.2
09/15/2022	103.58
09/14/2022	104.02
09/13/2022	107.11
09/12/2022	106.41
09/09/2022	104.89
09/08/2022	103.24
09/06/2022	101.43
09/02/2022	102.62
09/01/2022	102.81
08/31/2022	104.05
08/26/2022	108.97
08/25/2022	107.45
08/24/2022	106.89
08/22/2022	110.16
08/19/2022	111.09
08/18/2022	111.03
08/15/2022	111.08
08/09/2022	107.27
08/04/2022	105.98
08/02/2022	108.2
08/01/2022	106.07
07/28/2022	106.03
07/26/2022	103.92
07/25/2022	103.6
07/21/2022	101.82
07/20/2022	101.03
07/18/2022	100.01
07/11/2022	100.01
07/08/2022	103.11
07/07/2022	102.64
07/06/2022	102.92
07/05/2022	104.49
07/01/2022	103.74
06/30/2022	103.39
06/28/2022	103.57
06/27/2022	102.62
06/24/2022	98.93
06/21/2022	97.5
06/16/2022	100.37
06/15/2022	99.52
06/14/2022	102.01
06/13/2022	105.2
06/09/2022	107.71
06/08/2022	109.65
06/07/2022	109.25
06/03/2022	109.83
06/02/2022	105.16
06/01/2022	107.09
05/27/2022	106.53
05/26/2022	105.46
05/25/2022	104.0
05/24/2022	104.52
05/23/2022	99.72
05/20/2022	104.47
05/19/2022	104.07
05/17/2022	108.33
05/13/2022	106.45
05/12/2022	104.06
05/11/2022	104.54
05/09/2022	111.23
05/06/2022	112.8
05/05/2022	116.75
05/04/2022	113.83
05/02/2022	115.45
04/29/2022	112.1
04/28/2022	111.1
04/27/2022	110.58
04/25/2022	116.62
04/22/2022	118.94
04/21/2022	119.5
04/20/2022	117.23
04/19/2022	114.01
04/18/2022	117.4
04/14/2022	117.88
04/13/2022	117.01
04/12/2022	118.96
04/06/2022	114.82
04/05/2022	119.0
03/31/2022	118.82
03/30/2022	119.32
03/28/2022	117.24
03/25/2022	115.85
03/24/2022	114.67
03/23/2022	117.67
03/22/2022	118.66
03/21/2022	117.74
03/18/2022	118.55
03/17/2022	116.99
03/16/2022	116.81
03/15/2022	114.55
03/11/2022	112.26
03/09/2022	110.19
03/08/2022	116.52
03/07/2022	120.19
03/04/2022	119.33
03/03/2022	118.38
03/02/2022	119.1
03/01/2022	121.88
02/28/2022	120.97
02/22/2022	118.44
02/17/2022	114.59
02/15/2022	114.1
02/14/2022	113.0
02/11/2022	114.74
02/09/2022	116.05
02/08/2022	114.74
02/02/2022	117.48
02/01/2022	118.2
01/31/2022	115.05
01/28/2022	113.65
01/27/2022	116.07
01/26/2022	116.6
01/24/2022	116.38
01/21/2022	118.83
01/20/2022	120.41
01/19/2022	120.37
01/18/2022	121.18
01/11/2022	122.05
01/10/2022	123.7
01/07/2022	122.7
01/05/2022	122.0
01/03/2022	122.48
finish
