12/30/2022,no data
12/29/2022,1672324500000,109.6582,109.66,109.52,109.66,109.52,611
12/28/2022,no data
12/27/2022,no data
12/23/2022,no data
12/22/2022,1671719700000,109.3192,109.41,109.57,109.57,109.22,1158
12/21/2022,1671633300000,108.3158,108.305,108.305,108.305,108.305,252
12/20/2022,no data
12/19/2022,1671460500000,107.4372,107.41,107.57,107.57,107.41,628
12/16/2022,no data
12/15/2022,no data
12/14/2022,1671028500000,108.8763,108.88,108.88,108.88,108.88,102
12/13/2022,no data
12/12/2022,no data
12/09/2022,no data
12/08/2022,no data
12/07/2022,no data
12/06/2022,no data
12/05/2022,no data
12/02/2022,no data
12/01/2022,no data
11/30/2022,no data
11/29/2022,1669732500000,104.06,104.06,104.06,104.06,104.06,154
11/28/2022,1669646100000,105.2657,105.26,105.26,105.26,105.26,101
11/25/2022,no data
11/23/2022,1669214100000,105.8919,106.01,105.78,106.01,105.78,202
11/22/2022,1669127700000,105.5202,105.53,105.53,105.53,105.53,400
11/21/2022,no data
11/18/2022,no data
11/17/2022,no data
11/16/2022,no data
11/15/2022,1668522900000,106.5043,106.48,106.57,106.57,106.22,761
11/14/2022,1668436500000,104.159,104.21,104.21,104.21,104.21,128
11/11/2022,no data
11/10/2022,no data
11/09/2022,no data
11/08/2022,no data
11/07/2022,1667831700000,99.3613,99.235,99.64,99.64,99.235,504
11/04/2022,1667568900000,97.5875,97.58,97.865,97.865,97.58,700
11/03/2022,no data
11/02/2022,no data
11/01/2022,1667309700000,99.1276,99.14,99.14,99.14,99.14,232
10/31/2022,1667223300000,100.0222,99.97,100.305,100.305,99.87,981
10/28/2022,1666964100000,99.5006,99.27,99.8464,99.8464,99.27,500
10/27/2022,no data
10/26/2022,no data
10/25/2022,no data
10/24/2022,1666618500000,97.8716,97.45,98.095,98.27,97.27,1628
10/21/2022,no data
10/20/2022,no data
10/19/2022,no data
10/18/2022,no data
10/17/2022,1666013700000,96.2175,96.045,96.22,96.25,96.045,1391
10/14/2022,no data
10/13/2022,no data
10/12/2022,no data
10/11/2022,no data
10/10/2022,1665408900000,94.4037,94.4,94.4,94.4,94.4,101
10/07/2022,no data
10/06/2022,no data
10/05/2022,no data
10/04/2022,1664890500000,99.5723,99.57,99.57,99.57,99.57,117
10/03/2022,no data
09/30/2022,1664544900000,96.3426,96.35,96.35,96.35,96.35,171
09/29/2022,no data
09/28/2022,1664372100000,96.3948,96.51,96.51,96.51,96.51,214
09/27/2022,1664285700000,98.2248,98.285,98.285,98.285,98.285,116
09/26/2022,no data
09/23/2022,no data
09/22/2022,no data
09/21/2022,no data
09/20/2022,no data
09/19/2022,no data
09/16/2022,no data
09/15/2022,1663248900000,103.7224,103.73,103.73,103.73,103.73,103
09/14/2022,no data
09/13/2022,no data
09/12/2022,no data
09/09/2022,no data
09/08/2022,no data
09/07/2022,1662557700000,101.0859,101.09,101.09,101.09,101.09,721
09/06/2022,1662471300000,101.318,101.29,101.88,101.88,101.29,3501
09/02/2022,no data
09/01/2022,no data
08/31/2022,no data
08/30/2022,no data
08/29/2022,no data
08/26/2022,no data
08/25/2022,no data
08/24/2022,no data
08/23/2022,no data
08/22/2022,no data
08/19/2022,no data
08/18/2022,no data
08/17/2022,no data
08/16/2022,1660656900000,111.61,111.49,111.49,111.49,111.49,166
08/15/2022,no data
08/12/2022,no data
08/11/2022,1660224900000,110.8028,110.85,110.85,110.85,110.85,294
08/10/2022,no data
08/09/2022,no data
08/08/2022,no data
08/05/2022,1659706500000,105.9676,105.91,106.07,106.07,105.91,312
08/04/2022,1659620100000,106.1093,106.19,105.97,106.24,105.96,1312
08/03/2022,1659533700000,106.6984,107.135,106.44,107.135,106.44,1129
08/02/2022,1659447300000,107.0242,107.02,107.02,107.02,107.02,121
08/01/2022,1659360900000,106.4975,106.49,106.6,106.6,106.49,370
07/29/2022,1659101700000,107.1408,107.05,107.26,107.26,107.05,311
07/28/2022,1659015300000,105.8147,106.2,106.2,106.2,106.2,182
07/27/2022,no data
07/26/2022,no data
07/25/2022,no data
07/22/2022,no data
07/21/2022,no data
07/20/2022,no data
07/19/2022,no data
07/18/2022,1658151300000,100.8782,100.95,100.95,100.95,100.95,224
07/15/2022,no data
07/14/2022,no data
07/13/2022,1657719300000,99.8855,99.94,99.94,99.94,99.94,204
07/12/2022,no data
07/11/2022,no data
07/08/2022,no data
07/07/2022,no data
07/06/2022,1657114500000,103.1341,103.11,103.14,103.14,103.11,897
07/05/2022,no data
07/01/2022,no data
06/30/2022,no data
06/29/2022,1656509700000,102.4443,101.91,103.5,103.5,101.91,350
06/28/2022,no data
06/27/2022,no data
06/24/2022,no data
06/23/2022,1655991300000,98.9561,98.94,98.94,98.94,98.94,446
06/22/2022,1655904900000,97.1842,97.11,97.83,97.83,97.11,967
06/21/2022,1655818500000,97.5741,97.68,97.5,97.68,97.5,694
06/17/2022,no data
06/16/2022,no data
06/15/2022,no data
06/14/2022,no data
06/13/2022,no data
06/10/2022,no data
06/09/2022,no data
06/08/2022,1654695300000,109.0931,109.09,109.22,109.22,109.09,223
06/07/2022,no data
06/06/2022,1654522500000,109.3964,109.59,109.345,109.59,109.345,974
06/03/2022,no data
06/02/2022,no data
06/01/2022,no data
05/31/2022,no data
05/27/2022,1653658500000,107.6571,107.64,107.64,107.66,107.64,626
05/26/2022,no data
05/25/2022,1653485700000,102.9712,102.89,102.88,103.25,102.86,787
05/24/2022,1653399300000,104.6878,104.7,104.84,104.84,104.7,957
05/23/2022,1653312900000,101.0627,101.08,101.01,101.08,101.01,225
05/20/2022,no data
05/19/2022,no data
05/18/2022,no data
05/17/2022,no data
05/16/2022,no data
05/13/2022,no data
05/12/2022,no data
05/11/2022,1652276100000,105.8946,105.16,105.57,107.42,105.16,1144
05/10/2022,1652189700000,108.1428,108.47,108.0,108.47,108.0,494
05/09/2022,no data
05/06/2022,no data
05/05/2022,no data
05/04/2022,1651671300000,113.8964,114.03,114.03,114.03,114.03,206
05/03/2022,no data
05/02/2022,no data
04/29/2022,no data
04/28/2022,no data
04/27/2022,no data
04/26/2022,no data
04/25/2022,no data
04/22/2022,no data
04/21/2022,no data
04/20/2022,no data
04/19/2022,1650375300000,114.3618,114.59,114.06,114.59,114.06,247
04/18/2022,no data
04/14/2022,1649943300000,118.1853,118.0,118.41,118.41,118.0,2154
04/13/2022,no data
04/12/2022,no data
04/11/2022,no data
04/08/2022,no data
04/07/2022,1649338500000,117.4297,117.19,117.19,117.19,117.19,261
04/06/2022,1649252100000,116.667,116.66,116.66,116.66,116.66,102
04/05/2022,no data
04/04/2022,1649079300000,117.9532,117.8998,117.8998,117.8998,117.8998,401
04/01/2022,1648820100000,118.9357,118.94,118.94,118.94,118.94,102
03/31/2022,no data
03/30/2022,no data
03/29/2022,no data
03/28/2022,1648474500000,116.8238,117.11,116.75,117.11,116.51,922
03/25/2022,no data
03/24/2022,no data
03/23/2022,no data
03/22/2022,no data
03/21/2022,no data
03/18/2022,1647610500000,117.892,117.775,117.775,117.775,117.775,172
03/17/2022,no data
03/16/2022,1647437700000,117.731,117.725,117.725,117.725,117.725,101
03/15/2022,no data
03/14/2022,1647264900000,112.5114,112.77,112.77,112.77,112.77,449
03/11/2022,no data
03/10/2022,no data
03/09/2022,no data
03/08/2022,no data
03/07/2022,no data
03/04/2022,no data
03/03/2022,no data
03/02/2022,no data
03/01/2022,1646145300000,122.7301,122.77,122.77,122.77,122.77,124
02/28/2022,no data
02/25/2022,no data
02/24/2022,1645713300000,115.9233,116.12,115.8,116.12,115.8,828
02/23/2022,1645626900000,119.5877,119.56,119.56,119.56,119.56,129
02/22/2022,no data
02/18/2022,1645194900000,116.7376,116.33,117.0,117.0,116.33,1845
02/17/2022,1645108500000,113.7899,114.29,114.29,114.29,114.29,203
02/16/2022,no data
02/15/2022,no data
02/14/2022,no data
02/11/2022,1644590100000,115.1051,115.27,114.94,115.27,114.94,999
02/10/2022,1644503700000,115.0705,115.08,115.08,115.08,115.08,173
02/09/2022,1644417300000,116.1007,116.33,116.33,116.33,116.33,227
02/08/2022,1644330900000,115.2064,115.61,114.96,115.61,114.96,335
02/07/2022,1644244500000,115.93,115.93,115.93,115.93,115.93,100
02/04/2022,no data
02/03/2022,no data
02/02/2022,no data
02/01/2022,1643726100000,118.8644,118.86,118.85,118.87,118.82,3375
01/31/2022,1643639700000,114.7902,114.695,114.695,114.695,114.695,242
01/28/2022,no data
01/27/2022,no data
01/26/2022,1643207700000,116.0479,116.055,116.055,116.055,116.055,270
01/25/2022,1643121300000,114.582,114.58,114.58,114.58,114.58,303
01/24/2022,no data
01/21/2022,no data
01/20/2022,no data
01/19/2022,no data
01/18/2022,no data
01/14/2022,1642170900000,121.176,121.18,121.18,121.18,121.18,101
01/13/2022,1642084500000,121.7,121.69,121.74,121.74,121.69,376
01/12/2022,no data
01/11/2022,no data
01/10/2022,1641825300000,123.07,123.07,123.07,123.07,123.07,100
01/07/2022,no data
01/06/2022,no data
01/05/2022,no data
01/04/2022,no data
01/03/2022,1641220500000,122.2296,122.03,122.425,122.425,122.03,202
