10/01/2022,96.46,111.91,90.23,109.98,0.0,0.0,14823902.0
07/01/2022,103.34,112.425,94.87,95.03,0.0,0.0,15073718.0
04/01/2022,118.15,122.3,94.03,103.21,0.0,0.0,17763186.0
01/01/2022,122.44,124.14,110.04,117.5,0.0,0.0,18321605.0
10/01/2021,119.84,135.81,112.37,122.48,0.0,0.0,18984500.0
07/01/2021,141.11,141.935,118.88,119.35,0.0,0.0,14166400.0
04/01/2021,141.99,158.9721,139.73,140.84,0.0,0.0,12822100.0
01/01/2021,135.92,145.9,126.78,141.67,0.0,0.0,15246900.0
10/01/2020,113.45,137.36,110.3445,136.89,0.0,0.0,11737100.0
07/01/2020,111.91,122.44,110.95,113.2,0.0,0.0,15353700.0
04/01/2020,97.71,114.66,93.36,111.98,0.0,0.0,20583700.0
01/01/2020,115.5,119.02,79.84,99.54,0.0,0.0,23852000.0
10/01/2019,119.29,119.73,108.02,115.62,0.0,0.0,15298900.0
07/01/2019,125.0,126.195,114.84,118.45,0.0,0.0,16004800.0
04/01/2019,106.91,124.75,106.21,124.34,0.0,0.0,14818500.0
01/01/2019,92.73,106.68,88.26,106.39,0.0,0.0,15627900.0
10/01/2018,108.05,109.2,89.67,94.07,0.0,0.0,19018200.0
07/01/2018,92.91,112.31,92.46,107.74,0.0,0.0,16424600.0
04/01/2018,89.37,96.39,86.85,93.38,0.0,0.0,21010500.0
01/01/2018,86.44,92.32,79.97,89.83,0.0,0.0,17983000.0
10/01/2017,86.81,89.675,84.22,86.28,0.0,0.0,15178600.0
07/01/2017,87.21,90.79,80.69,86.31,0.0,0.0,16935400.0
04/01/2017,76.94,87.93,75.49,86.86,0.0,0.0,17975300.0
01/01/2017,74.26,77.87,71.44,76.99,0.0,0.0,19658600.0
10/01/2016,77.07,78.1,70.32,73.45,0.0,0.0,17752400.0
07/01/2016,78.99,81.5,75.01,77.41,0.0,0.0,14599400.0
04/01/2016,78.03,80.36,74.16,79.13,0.0,0.0,17615200.0
01/01/2016,72.0,79.04,66.33,78.41,0.0,0.0,21082600.0
10/01/2015,65.95,75.96,65.79,72.65,0.0,0.0,15863300.0
07/01/2015,64.14,70.34,60.73,65.96,0.0,0.0,19589000.0
04/01/2015,63.58,66.31,61.98,63.77,0.0,0.0,23705400.0
01/01/2015,67.06,67.68,61.39,63.52,0.0,0.0,19813200.0
10/01/2014,60.4,68.67,55.59,66.84,0.0,0.0,19718100.0
07/01/2014,67.26,68.0,60.52,60.7,0.0,0.0,15579400.0
04/01/2014,66.25,67.84,64.54,67.01,0.0,0.0,11900100.0
01/01/2014,67.76,68.78,61.18,66.1,0.0,0.0,17678700.0
10/01/2013,59.98,67.86,59.19,67.81,0.0,0.0,12812600.0
07/01/2013,55.49,60.75,55.36,60.13,0.0,0.0,11033900.0
04/01/2013,57.42,57.76,54.13,55.21,0.0,0.0,12226400.0
01/01/2013,48.95,57.47,48.14,57.35,0.0,0.0,13419400.0
10/01/2012,51.71,53.36,45.19,47.72,0.0,0.0,16049900.0
07/01/2012,51.07,53.19,47.56,51.71,0.0,0.0,14515900.0
04/01/2012,54.76,55.49,49.36,51.05,0.0,0.0,16271500.0
01/01/2012,53.18,55.0,51.01,54.77,0.0,0.0,13143700.0
10/01/2011,44.17,52.87,41.98,52.17,0.0,0.0,13025400.0
07/01/2011,52.58,54.66,44.66,44.67,0.0,0.0,15970300.0
04/01/2011,50.32,53.8,48.85,52.34,0.0,0.0,10790700.0
01/01/2011,47.78,50.19,46.5,50.13,0.0,0.0,9945500.0
10/01/2010,46.09,48.45,44.4,47.57,0.0,0.0,9420100.0
07/01/2010,37.81,46.55,36.91,45.67,0.0,0.0,9719700.0
04/01/2010,38.86,44.36,37.34,37.82,0.0,0.0,13745100.0
01/01/2010,35.89,40.85,34.46,39.35,0.0,0.0,11663500.0
10/01/2009,37.11,38.96,34.52,35.74,0.0,0.0,11923800.0
07/01/2009,33.89,38.09,32.14,37.36,0.0,0.0,11450900.0
04/01/2009,30.71,34.26,28.61,33.77,0.0,0.0,20611600.0
01/01/2009,35.39,36.08,24.95,31.14,0.0,0.0,30936500.0
10/01/2008,39.02,39.75,23.74,35.24,0.0,0.0,35577300.0
07/01/2008,41.44,44.03,36.54,39.11,0.0,0.0,27685300.0
04/01/2008,39.37,46.19,38.98,41.95,0.0,0.0,32633500.0
01/01/2008,40.68,42.72,32.87,38.93,0.0,0.0,39802900
10/01/2007,37.79,44.75,37.75,40.91,0.0,0.0,23622100.0
07/01/2007,35.86,40.09,33.37,37.87,0.0,0.0,28623400.0
04/01/2007,33.6,38.49,33.34,35.56,0.0,0.0,21983300.0
01/01/2007,29.75,35.17,28.725,33.465,0.0,0.0,26167998.0
10/01/2006,25.285,31.145,24.695,29.52,0.0,0.0,21041995.0
07/01/2006,25.18,26.375,23.43,25.44,0.0,0.0,18610397.0
04/01/2006,27.625,27.665,24.805,24.805,0.0,0.0,15919198.0
01/01/2006,26.185,28.725,25.855,27.625,0.0,0.0,9961799.0
10/01/2005,25.025,27.74,23.8,26.1,0.0,0.0,13869998.0
07/01/2005,25.4,26.05,23.555,24.905,0.0,0.0,10961996.0
04/01/2005,26.05,27.435,23.5,25.4,0.0,0.0,18476597.0
01/01/2005,26.475,27.445,23.64,25.99,0.0,0.0,12342397.0
10/01/2004,22.105,27.445,22.05,26.39,0.0,0.0,12796797.0
07/01/2004,21.97,23.45,20.455,21.985,0.0,0.0,12596197.0
04/01/2004,19.2,22.1,18.8,21.845,0.0,0.0,14199595.0
01/01/2004,19.495,21.0,18.355,19.2,0.0,0.0,9343000.0
10/01/2003,18.375,19.9,17.25,19.5,0.0,0.0,11991199.0
07/01/2003,18.0,19.85,17.575,18.345,0.0,0.0,7756600.0
04/01/2003,16.125,18.25,15.325,18.0,0.0,0.0,8998200.0
01/01/2003,15.625,16.51,13.255,16.175,0.0,0.0,8579798.0
10/01/2002,13.485,16.505,12.42,15.62,0.0,0.0,10242799.0
07/01/2002,15.56,16.3,13.15,13.435,0.0,0.0,9367600.0
04/01/2002,17.5,19.37,15.375,15.375,0.0,0.0,13416997.0
01/01/2002,17.515,17.71,14.875,17.525,0.0,0.0,17243195.0
10/01/2001,15.9,17.55,13.55,17.515,0.0,0.0,12568198.0
07/01/2001,16.325,18.5,14.25,15.9,0.0,0.0,8511999.0
04/01/2001,15.235,18.605,14.625,16.215,0.0,0.0,11126998.0
01/01/2001,14.69,15.8,13.22,15.235,0.0,0.0,12608197.0
10/01/2000,12.095,15.065,9.69,14.69,0.0,0.0,15991797.0
07/01/2000,13.625,15.0,10.94,11.97,0.0,0.0,12179400.0
04/01/2000,13.44,14.655,11.69,13.5,0.0,0.0,9592800.0
01/01/2000,12.565,14.315,10.065,13.345,0.0,0.0,14954000.0
10/01/1999,13.31,14.63,11.94,12.56,0.0,0.0,9804798.0
07/01/1999,15.13,15.44,11.25,13.38,0.0,0.0,10406000.0
04/01/1999,13.06,15.75,11.9,15.0,0.0,0.0,9163999.0
01/01/1999,13.81,14.81,11.56,13.0,0.0,0.0,8087600.0
10/01/1998,11.38,15.06,9.84,14.03,0.0,0.0,12055599.0
07/01/1998,15.56,16.72,10.88,11.38,0.0,0.0,16487599.0
04/01/1998,15.02,16.47,14.0,15.55,0.0,0.0,10127600.0
01/01/1998,13.89,15.91,11.98,15.02,0.0,0.0,10471599.0
10/01/1997,13.98,14.78,12.61,13.88,0.0,0.0,7001200.0
07/01/1997,11.25,14.61,11.13,13.98,0.0,0.0,8839600.0
04/01/1997,9.59,11.47,8.78,11.31,0.0,0.0,8637598.0
01/01/1997,8.78,10.16,8.19,9.56,0.0,0.0,9344000.0
10/01/1996,8.06,9.03,7.63,8.81,0.0,0.0,8048799.0
07/01/1996,7.59,9.28,7.59,8.03,0.0,0.0,7996800.0
04/01/1996,10.38,10.78,7.25,7.56,0.0,0.0,16297200.0
01/01/1996,9.28,10.47,8.69,10.38,0.0,0.0,7960000.0
10/01/1995,8.25,9.56,7.78,9.34,0.0,0.0,7343600.0
07/01/1995,8.03,8.56,7.75,8.28,0.0,0.0,4840800.0
04/01/1995,7.13,8.03,6.97,8.03,0.0,0.0,5119600.0
01/01/1995,7.13,7.34,6.16,7.16,0.0,0.0,4843600.0
10/01/1994,6.75,7.25,6.22,7.19,0.0,0.0,7629600.0
07/01/1994,5.72,6.78,5.53,6.75,0.0,0.0,5178400.0
04/01/1994,5.5,6.41,5.31,5.69,0.0,0.0,2789600.0
01/01/1994,5.13,5.69,5.03,5.34,0.0,0.0,2148800.0
10/01/1993,5.25,5.5,4.94,5.19,0.0,0.0,3136399.0
07/01/1993,4.63,5.25,4.47,5.25,0.0,0.0,2753600.0
05/01/1993,4.47,4.69,4.0,4.59,0.0,0.0,2017600.0
