12/01/2022,106.78,111.91,105.37,109.98,0.0,0.0,4787700.0
11/01/2022,99.6,107.01,92.55,106.14,0.0,0.0,4622002.0
10/01/2022,96.46,104.115,90.23,99.15,0.0,0.0,5414200.0
09/01/2022,102.36,108.27,94.87,95.03,0.0,0.0,5271900.0
08/01/2022,106.3,112.425,102.72,102.81,0.0,0.0,4465318.0
07/01/2022,103.34,109.49,97.7,107.76,0.0,0.0,5336500.0
06/01/2022,107.49,110.805,94.03,103.21,0.0,0.0,5234803.0
05/01/2022,115.42,116.97,97.19,107.09,0.0,0.0,7412901.0
04/01/2022,118.15,122.3,109.55,114.83,0.0,0.0,5115482.0
03/01/2022,121.96,122.94,110.04,117.5,0.0,0.0,5595405.0
02/01/2022,117.09,122.03,112.4375,121.88,0.0,0.0,5557800.0
01/01/2022,122.44,124.14,112.45,117.3,0.0,0.0,7168400.0
12/01/2021,120.67,123.5,112.37,122.48,0.0,0.0,8565600.0
11/01/2021,119.98,135.81,119.32,119.59,0.0,0.0,5662400.0
10/01/2021,119.84,129.79,118.61,120.78,0.0,0.0,4756500.0
09/01/2021,135.11,136.22,118.88,119.35,0.0,0.0,4963500.0
08/01/2021,128.44,136.23,126.32,134.8,0.0,0.0,4279800.0
07/01/2021,141.11,141.935,128.18,128.92,0.0,0.0,4923100.0
06/01/2021,147.98,148.81,139.73,140.84,0.0,0.0,4785800.0
05/01/2021,152.16,158.9721,146.42,147.31,0.0,0.0,3710100.0
04/01/2021,141.99,153.07,141.38,150.81,0.0,0.0,4326200.0
03/01/2021,130.78,145.9,129.47,141.67,0.0,0.0,6555600.0
02/01/2021,134.13,144.76,126.78,130.07,0.0,0.0,4647400.0
01/01/2021,135.92,141.33,131.82,132.97,0.0,0.0,4043900.0
12/01/2020,127.15,137.36,125.15,136.89,0.0,0.0,4208700.0
11/01/2020,115.17,129.12,114.67,126.32,0.0,0.0,3974400.0
10/01/2020,113.45,118.97,110.3445,114.09,0.0,0.0,3554000.0
09/01/2020,117.94,122.44,111.16,113.2,0.0,0.0,4736700.0
08/01/2020,116.85,120.67,114.85,118.39,0.0,0.0,4059500.0
07/01/2020,111.91,120.45,110.95,115.2,0.0,0.0,6557500.0
06/01/2020,111.28,114.28,103.065,111.98,0.0,0.0,6565200.0
05/01/2020,110.56,113.33,99.11,111.39,0.0,0.0,5630100.0
04/01/2020,97.71,114.66,93.36,107.08,0.0,0.0,8388400.0
03/01/2020,101.62,107.63,79.84,99.54,0.0,0.0,11953400.0
02/01/2020,115.61,118.95,99.315,101.07,0.0,0.0,6984900.0
01/01/2020,115.5,119.02,112.74,115.51,0.0,0.0,4913700.0
12/01/2019,112.52,116.2,111.14,115.62,0.0,0.0,4999700.0
11/01/2019,113.67,115.56,108.02,112.12,0.0,0.0,6386500.0
10/01/2019,119.29,119.73,113.78,118.15,0.0,0.0,3912700.0
09/01/2019,120.81,123.21,115.87,118.45,0.0,0.0,4648300.0
08/01/2019,120.19,124.0,114.84,122.22,0.0,0.0,5870800.0
07/01/2019,125.0,126.195,119.94,121.02,0.0,0.0,5485700.0
06/01/2019,113.41,124.75,113.41,124.34,0.0,0.0,6592900.0
05/01/2019,112.27,115.52,111.29,113.27,0.0,0.0,4378500.0
04/01/2019,106.91,111.81,106.21,111.24,0.0,0.0,3847100.0
03/01/2019,102.21,106.68,99.21,106.39,0.0,0.0,4276700.0
02/01/2019,99.33,104.0,98.52,101.73,0.0,0.0,5254200.0
01/01/2019,92.73,99.28,88.26,99.12,0.0,0.0,6097000.0
12/01/2018,105.23,105.51,89.67,94.07,0.0,0.0,5407500.0
11/01/2018,102.69,107.15,95.06,104.05,0.0,0.0,6455900.0
10/01/2018,108.05,109.2,99.14,101.96,0.0,0.0,7154800.0
09/01/2018,105.32,112.31,104.58,107.74,0.0,0.0,5892900.0
08/01/2018,102.4,105.77,100.06,104.71,0.0,0.0,5225400.0
07/01/2018,92.91,104.1,92.46,102.43,0.0,0.0,5306300.0
06/01/2018,92.88,95.37,91.42,93.38,0.0,0.0,7227000.0
05/01/2018,93.45,94.95,90.84,92.32,0.0,0.0,6628300.0
04/01/2018,89.37,96.39,86.85,93.5,0.0,0.0,7155200.0
03/01/2018,89.24,92.1,86.69,89.83,0.0,0.0,5537900.0
02/01/2018,87.24,92.32,79.97,89.42,0.0,0.0,6836500.0
01/01/2018,86.44,89.5,85.16,87.42,0.0,0.0,5608600.0
12/01/2017,88.33,89.16,85.06,86.28,0.0,0.0,5253200.0
11/01/2017,87.83,88.9,84.22,88.41,0.0,0.0,4824800.0
10/01/2017,86.81,89.675,85.89,87.07,0.0,0.0,5100600.0
09/01/2017,83.8,87.51,82.32,86.31,0.0,0.0,4444000.0
08/01/2017,81.0,83.83,80.95,83.61,0.0,0.0,5255500.0
07/01/2017,87.21,90.79,80.69,80.93,0.0,0.0,7235900.0
06/01/2017,85.25,87.93,84.86,86.86,0.0,0.0,5377700.0
05/01/2017,80.08,85.18,78.89,85.01,0.0,0.0,7083700.0
04/01/2017,76.94,80.53,75.49,80.3,0.0,0.0,5513900.0
03/01/2017,75.21,77.87,74.92,76.99,0.0,0.0,6222500.0
02/01/2017,73.29,76.2,72.44,74.51,0.0,0.0,7159800.0
01/01/2017,74.26,74.72,71.44,72.97,0.0,0.0,6276300.0
12/01/2016,73.2,75.6,71.84,73.45,0.0,0.0,6901200.0
11/01/2016,71.81,77.28,70.32,73.18,0.0,0.0,6389200.0
10/01/2016,77.07,78.1,70.88,71.44,0.0,0.0,4462000.0
09/01/2016,78.12,80.55,76.97,77.41,0.0,0.0,5757200.0
08/01/2016,78.14,79.12,75.01,77.98,0.0,0.0,4855600.0
07/01/2016,78.99,81.5,77.11,78.18,0.0,0.0,3986600.0
06/01/2016,76.86,80.14,74.27,79.13,0.0,0.0,5286800.0
05/01/2016,75.78,77.98,74.16,77.26,0.0,0.0,6470800.0
04/01/2016,78.03,80.36,75.71,76.0,0.0,0.0,5857600.0
03/01/2016,74.04,79.04,73.75,78.41,0.0,0.0,6595900.0
02/01/2016,72.29,76.2,69.88,73.71,0.0,0.0,7165500.0
01/01/2016,72.0,72.91,66.33,72.9,0.0,0.0,7321200.0
12/01/2015,74.7,75.28,71.09,72.65,0.0,0.0,4315400.0
11/01/2015,74.77,75.96,70.57,74.48,0.0,0.0,5137500.0
10/01/2015,65.95,75.25,65.79,73.56,0.0,0.0,6410400.0
09/01/2015,66.07,69.38,63.62,65.96,0.0,0.0,6371800.0
08/01/2015,67.78,70.34,64.66,67.36,0.0,0.0,5661900.0
07/01/2015,64.14,68.71,60.73,67.79,0.0,0.0,7555300.0
06/01/2015,64.02,65.83,63.31,63.77,0.0,0.0,7656200.0
05/01/2015,64.25,66.31,62.38,63.77,0.0,0.0,9767200.0
04/01/2015,63.58,63.84,61.98,62.07,0.0,0.0,6282000.0
03/01/2015,66.04,66.56,62.57,63.52,0.0,0.0,6886400.0
02/01/2015,63.23,66.6,62.71,65.87,0.0,0.0,7048800.0
01/01/2015,67.06,67.68,61.39,63.11,0.0,0.0,5878000.0
12/01/2014,64.82,68.67,63.4,66.84,0.0,0.0,4574700.0
11/01/2014,61.73,65.87,61.34,65.25,0.0,0.0,5016100.0
10/01/2014,60.4,62.69,55.59,62.24,0.0,0.0,10127300.0
09/01/2014,64.38,65.37,60.57,60.7,0.0,0.0,5678800.0
08/01/2014,61.07,64.39,60.52,64.15,0.0,0.0,4416200.0
07/01/2014,67.26,68.0,60.89,61.1,0.0,0.0,5484400.0
06/01/2014,66.72,67.58,64.95,67.01,0.0,0.0,3594300.0
05/01/2014,67.65,67.84,65.34,66.59,0.0,0.0,3738800.0
04/01/2014,66.25,67.78,64.54,67.42,0.0,0.0,4567000.0
03/01/2014,65.53,66.37,63.11,66.1,0.0,0.0,3620600.0
02/01/2014,63.86,66.74,61.18,66.17,0.0,0.0,4549200.0
01/01/2014,67.76,68.78,62.84,63.8,0.0,0.0,9508900.0
12/01/2013,64.96,67.86,63.1,67.81,0.0,0.0,3698500.0
11/01/2013,64.42,65.25,63.07,64.92,0.0,0.0,4736400.0
10/01/2013,59.98,64.53,59.19,64.16,0.0,0.0,4377700.0
09/01/2013,59.44,60.75,57.4,60.13,0.0,0.0,3965800.0
08/01/2013,59.12,60.74,58.43,58.81,0.0,0.0,3086500.0
07/01/2013,55.49,60.11,55.36,58.39,0.0,0.0,3981600.0
06/01/2013,56.71,57.76,54.13,55.21,0.0,0.0,3482900.0
05/01/2013,56.01,57.52,55.31,56.72,0.0,0.0,4279600.0
04/01/2013,57.42,57.69,54.41,56.1,0.0,0.0,4463900.0
03/01/2013,53.66,57.47,52.97,57.35,0.0,0.0,4044400.0
02/01/2013,52.01,53.99,51.42,53.94,0.0,0.0,4318500.0
01/01/2013,48.95,52.39,48.14,51.53,0.0,0.0,5056500.0
12/01/2012,48.02,48.55,46.61,47.72,0.0,0.0,5467200.0
11/01/2012,51.39,53.36,45.19,47.67,0.0,0.0,7234400.0
10/01/2012,51.71,53.06,49.97,51.28,0.0,0.0,3348300.0
09/01/2012,50.72,53.19,50.07,51.71,0.0,0.0,4868000.0
08/01/2012,50.12,51.14,48.08,50.65,0.0,0.0,3948400.0
07/01/2012,51.07,52.74,47.56,50.01,0.0,0.0,5699500.0
06/01/2012,49.56,53.26,49.36,51.05,0.0,0.0,4283600.0
05/01/2012,54.4,55.39,49.63,50.67,0.0,0.0,7174200.0
04/01/2012,54.76,55.49,52.03,54.51,0.0,0.0,4813700.0
03/01/2012,53.01,55.0,51.96,54.77,0.0,0.0,5145700.0
02/01/2012,52.74,53.82,51.15,52.78,0.0,0.0,4035700.0
01/01/2012,53.18,53.44,51.01,52.42,0.0,0.0,3962300.0
12/01/2011,50.53,52.87,48.8,52.17,0.0,0.0,4378500.0
11/01/2011,47.41,50.83,45.98,50.79,0.0,0.0,4771800.0
10/01/2011,44.17,49.85,41.98,47.97,0.0,0.0,3875100.0
09/01/2011,50.65,50.97,44.66,44.67,0.0,0.0,5157600.0
08/01/2011,51.51,51.66,44.96,50.48,0.0,0.0,6540000.0
07/01/2011,52.58,54.66,47.61,51.05,0.0,0.0,4272700.0
06/01/2011,53.32,53.48,49.93,52.34,0.0,0.0,4204400.0
05/01/2011,52.54,53.8,51.03,53.4,0.0,0.0,4211500.0
04/01/2011,50.32,52.75,48.85,52.45,0.0,0.0,2374800.0
03/01/2011,48.21,50.19,46.5,50.13,0.0,0.0,3818600.0
02/01/2011,48.23,50.06,46.95,48.17,0.0,0.0,3275300.0
01/01/2011,47.78,49.14,46.75,48.06,0.0,0.0,2851600.0
12/01/2010,46.45,48.45,46.36,47.57,0.0,0.0,3362000.0
11/01/2010,45.03,46.92,44.54,45.67,0.0,0.0,2662100.0
10/01/2010,46.09,47.61,44.4,44.88,0.0,0.0,3396000.0
09/01/2010,42.32,46.55,41.93,45.67,0.0,0.0,3133300.0
08/01/2010,43.78,44.05,40.31,41.65,0.0,0.0,2988900.0
07/01/2010,37.81,43.82,36.91,43.07,0.0,0.0,3597500.0
06/01/2010,39.72,41.12,37.41,37.82,0.0,0.0,4047600.0
05/01/2010,43.29,44.12,37.34,39.86,0.0,0.0,5154800.0
04/01/2010,38.86,44.36,38.63,43.04,0.0,0.0,4542700.0
03/01/2010,38.56,40.85,38.34,39.35,0.0,0.0,4158500.0
02/01/2010,35.41,38.65,34.46,38.53,0.0,0.0,4546700.0
01/01/2010,35.89,37.01,35.48,35.48,0.0,0.0,2958300.0
12/01/2009,36.3,37.09,35.74,35.74,0.0,0.0,3347600.0
11/01/2009,35.38,37.3,34.52,36.12,0.0,0.0,3595900.0
10/01/2009,37.11,38.96,35.04,35.31,0.0,0.0,4980300.0
09/01/2009,34.31,38.09,33.58,37.36,0.0,0.0,3808000.0
08/01/2009,35.34,36.21,34.3,34.38,0.0,0.0,2847700.0
07/01/2009,33.89,36.49,32.14,34.92,0.0,0.0,4795200.0
06/01/2009,31.55,34.26,31.55,33.77,0.0,0.0,5935000.0
05/01/2009,30.78,31.93,30.01,31.01,0.0,0.0,5931900.0
04/01/2009,30.71,33.55,28.61,31.03,0.0,0.0,8744700.0
03/01/2009,27.62,32.51,24.95,31.14,0.0,0.0,9143200.0
02/01/2009,30.38,30.93,26.25,28.06,0.0,0.0,11267700.0
01/01/2009,35.39,36.08,29.04,30.82,0.0,0.0,10525600.0
12/01/2008,32.49,35.49,29.25,35.24,0.0,0.0,11521400.0
11/01/2008,30.01,33.44,27.84,33.44,0.0,0.0,8515600.0
10/01/2008,39.02,39.75,23.74,30.32,0.0,0.0,15540300.0
09/01/2008,40.79,44.03,37.65,39.11,0.0,0.0,8477400.0
08/01/2008,39.04,41.11,37.69,40.39,0.0,0.0,6296700.0
07/01/2008,41.44,43.64,36.54,38.7,0.0,0.0,12911200.0
06/01/2008,44.89,46.19,40.74,41.95,0.0,0.0,14311000.0
05/01/2008,44.16,45.89,42.49,44.72,0.0,0.0,8122100.0
04/01/2008,39.37,45.42,38.98,44.15,0.0,0.0,10200400.0
03/01/2008,37.29,39.76,34.51,38.93,0.0,0.0,11511500.0
02/01/2008,37.82,40.07,33.87,37.48,0.0,0.0,16039200.0
01/01/2008,40.68,42.72,32.87,37.7,0.0,0.0,12252200.0
12/01/2007,42.06,44.01,39.69,40.91,0.0,0.0,6334800.0
11/01/2007,44.23,44.45,39.83,42.21,0.0,0.0,8201500.0
10/01/2007,37.79,44.75,37.75,44.7,0.0,0.0,9085800.0
09/01/2007,36.1,38.22,33.37,37.87,0.0,0.0,7422300.0
08/01/2007,36.25,40.09,34.84,36.33,0.0,0.0,11399100.0
07/01/2007,35.86,39.42,34.99,36.4,0.0,0.0,9802000.0
06/01/2007,38.09,38.3,35.0,35.56,0.0,0.0,6686600.0
05/01/2007,36.79,38.31,35.99,37.56,0.0,0.0,7996100.0
04/01/2007,33.6,38.49,33.34,36.625,0.0,0.0,7300600.0
03/01/2007,32.5,34.28,32.25,33.465,0.0,0.0,8501799.0
02/01/2007,30.65,35.17,30.15,32.895,0.0,0.0,11238799.0
01/01/2007,29.75,31.0,28.725,30.505,0.0,0.0,6427400.0
12/01/2006,30.545,31.145,28.92,29.52,0.0,0.0,6424798.0
11/01/2006,27.49,30.635,26.88,30.63,0.0,0.0,7865599.0
10/01/2006,25.285,28.375,24.695,27.455,0.0,0.0,6751598.0
09/01/2006,25.85,26.12,24.45,25.44,0.0,0.0,5959399.0
08/01/2006,25.675,26.375,24.935,25.75,0.0,0.0,5305399.0
07/01/2006,25.18,25.96,23.43,25.75,0.0,0.0,7345599.0
06/01/2006,26.25,26.55,24.805,24.805,0.0,0.0,8672598.0
05/01/2006,26.205,27.35,25.2,26.3,0.0,0.0,3842800.0
04/01/2006,27.625,27.665,25.51,26.205,0.0,0.0,3403800.0
03/01/2006,26.615,27.67,26.24,27.625,0.0,0.0,3688400.0
02/01/2006,28.125,28.725,26.225,26.525,0.0,0.0,3462799.0
01/01/2006,26.185,28.22,25.855,28.22,0.0,0.0,2810600.0
12/01/2005,27.33,27.74,26.0,26.1,0.0,0.0,4311999.0
11/01/2005,25.75,27.45,25.135,27.425,0.0,0.0,3304200.0
10/01/2005,25.025,26.45,23.8,25.595,0.0,0.0,6253799.0
09/01/2005,24.865,25.5,23.555,24.905,0.0,0.0,3528800.0
08/01/2005,24.98,25.365,23.9,24.865,0.0,0.0,3714999.0
07/01/2005,25.4,26.05,24.625,24.925,0.0,0.0,3718197.0
06/01/2005,25.04,25.69,23.975,25.4,0.0,0.0,7549600.0
05/01/2005,24.15,26.305,24.09,25.0,0.0,0.0,4617799.0
04/01/2005,26.05,27.435,23.5,24.115,0.0,0.0,6309198.0
03/01/2005,25.81,26.675,24.66,25.99,0.0,0.0,4715199.0
02/01/2005,24.205,25.99,24.065,25.81,0.0,0.0,3704199.0
01/01/2005,26.475,27.445,23.64,24.245,0.0,0.0,3922999.0
12/01/2004,25.825,27.445,25.125,26.39,0.0,0.0,4191800.0
11/01/2004,23.5,26.535,23.3,26.275,0.0,0.0,3857399.0
10/01/2004,22.105,24.005,22.05,23.46,0.0,0.0,4747598.0
09/01/2004,22.65,23.45,21.665,21.985,0.0,0.0,3330400.0
08/01/2004,21.055,22.85,20.455,22.72,0.0,0.0,3981998.0
07/01/2004,21.97,22.43,20.775,21.155,0.0,0.0,5283799.0
06/01/2004,20.175,22.1,20.05,21.845,0.0,0.0,7139398.0
05/01/2004,19.55,20.46,18.8,20.325,0.0,0.0,3620797.0
04/01/2004,19.2,21.29,19.075,19.65,0.0,0.0,3439400.0
03/01/2004,20.325,20.535,18.355,19.2,0.0,0.0,3369600.0
02/01/2004,20.05,21.0,19.58,20.225,0.0,0.0,2326200.0
01/01/2004,19.495,20.53,19.15,20.035,0.0,0.0,3647200.0
12/01/2003,17.5,19.74,17.45,19.5,0.0,0.0,5731199.0
11/01/2003,17.9,18.59,17.25,17.455,0.0,0.0,2997800.0
10/01/2003,18.375,19.9,17.8,17.9,0.0,0.0,3262200.0
09/01/2003,19.5,19.85,17.855,18.345,0.0,0.0,2817200.0
08/01/2003,18.575,19.6,17.8,19.58,0.0,0.0,2016800.0
07/01/2003,18.0,18.975,17.575,18.625,0.0,0.0,2922600.0
06/01/2003,17.555,18.25,17.0,18.0,0.0,0.0,2512400.0
05/01/2003,17.1,17.665,16.95,17.5,0.0,0.0,3185800.0
04/01/2003,16.125,17.355,15.325,17.21,0.0,0.0,3300000.0
03/01/2003,15.135,16.51,14.725,16.175,0.0,0.0,3504199.0
02/01/2003,14.315,15.175,13.255,15.15,0.0,0.0,3117599.0
01/01/2003,15.625,15.745,13.88,14.34,0.0,0.0,1958000.0
12/01/2002,15.055,16.505,14.885,15.62,0.0,0.0,4201999.0
11/01/2002,13.925,15.175,13.815,14.94,0.0,0.0,2103800.0
10/01/2002,13.485,14.05,12.42,13.965,0.0,0.0,3937000.0
09/01/2002,16.0,16.075,13.15,13.435,0.0,0.0,2850200.0
08/01/2002,14.9,16.15,14.3,16.05,0.0,0.0,2185000.0
07/01/2002,15.56,16.3,13.3,14.96,0.0,0.0,4332400.0
06/01/2002,18.69,18.7,15.375,15.375,0.0,0.0,5861399.0
05/01/2002,18.57,19.37,17.66,18.69,0.0,0.0,3820598.0
04/01/2002,17.5,19.0,17.28,18.575,0.0,0.0,3735000.0
03/01/2002,17.4,17.595,16.56,17.525,0.0,0.0,4437398.0
02/01/2002,16.04,17.52,15.67,17.3,0.0,0.0,3826998.0
01/01/2002,17.515,17.71,14.875,16.04,0.0,0.0,8978799.0
12/01/2001,16.4,17.55,16.22,17.515,0.0,0.0,3729199.0
11/01/2001,15.1,16.575,15.0,16.4,0.0,0.0,3600599.0
10/01/2001,15.9,17.37,13.55,15.05,0.0,0.0,5238400.0
09/01/2001,17.895,18.35,14.25,15.9,0.0,0.0,2664000.0
08/01/2001,16.5,18.5,16.375,17.895,0.0,0.0,2908399.0
07/01/2001,16.325,17.05,15.25,16.5,0.0,0.0,2939600.0
06/01/2001,16.55,18.0,15.91,16.215,0.0,0.0,3361599.0
05/01/2001,15.79,18.605,15.5,16.48,0.0,0.0,4474000.0
04/01/2001,15.235,16.4,14.625,15.79,0.0,0.0,3291399.0
03/01/2001,14.3,15.8,14.255,15.235,0.0,0.0,5217999.0
02/01/2001,14.96,15.115,14.11,14.35,0.0,0.0,2994599.0
01/01/2001,14.69,15.165,13.22,14.96,0.0,0.0,4395599.0
12/01/2000,12.5,15.065,12.5,14.69,0.0,0.0,3662198.0
11/01/2000,10.375,12.595,9.94,12.5,0.0,0.0,6366600.0
10/01/2000,12.095,12.28,9.69,10.345,0.0,0.0,5962999.0
09/01/2000,11.69,12.69,10.94,11.97,0.0,0.0,3780800.0
08/01/2000,12.47,13.095,11.125,11.655,0.0,0.0,3931000.0
07/01/2000,13.625,15.0,11.69,12.47,0.0,0.0,4467600.0
06/01/2000,13.28,14.655,13.25,13.5,0.0,0.0,3970800.0
05/01/2000,14.0,14.0,12.875,13.28,0.0,0.0,2655000.0
04/01/2000,13.44,14.25,11.69,14.25,0.0,0.0,2967000.0
03/01/2000,11.97,13.815,10.065,13.345,0.0,0.0,5578800.0
02/01/2000,11.065,13.0,10.75,11.97,0.0,0.0,5440600.0
01/01/2000,12.565,14.315,11.0,11.0,0.0,0.0,3934600.0
12/01/1999,13.47,14.13,12.35,12.56,0.0,0.0,3838799.0
11/01/1999,13.38,14.63,13.03,13.56,0.0,0.0,2916000.0
10/01/1999,13.31,13.6,11.94,13.44,0.0,0.0,3049999.0
09/01/1999,12.88,13.56,11.25,13.38,0.0,0.0,3740400.0
08/01/1999,14.4,14.5,12.4,12.88,0.0,0.0,3348800.0
07/01/1999,15.13,15.44,13.31,14.47,0.0,0.0,3316800.0
06/01/1999,13.81,15.25,13.63,15.0,0.0,0.0,3086800.0
05/01/1999,13.69,15.75,12.75,13.75,0.0,0.0,3059399.0
04/01/1999,13.06,15.0,11.9,14.0,0.0,0.0,3017800.0
03/01/1999,13.81,14.81,12.44,13.0,0.0,0.0,2590800.0
02/01/1999,13.65,14.47,11.56,13.69,0.0,0.0,2675000.0
01/01/1999,13.81,14.38,12.0,13.65,0.0,0.0,2821800.0
12/01/1998,13.94,15.06,12.5,14.03,0.0,0.0,3358000.0
11/01/1998,13.5,14.56,13.38,13.97,0.0,0.0,3523800.0
10/01/1998,11.38,15.0,9.84,13.38,0.0,0.0,5173799.0
09/01/1998,13.5,14.66,10.88,11.38,0.0,0.0,4834000.0
08/01/1998,15.41,15.78,13.75,14.19,0.0,0.0,3086399.0
07/01/1998,15.56,16.72,15.0,15.39,0.0,0.0,8567200.0
06/01/1998,16.25,16.47,14.63,15.55,0.0,0.0,2972000.0
05/01/1998,15.5,16.47,15.19,16.2,0.0,0.0,3510400.0
04/01/1998,15.02,15.81,14.0,15.63,0.0,0.0,3645200.0
03/01/1998,14.44,15.91,14.44,15.02,0.0,0.0,3204000.0
02/01/1998,12.77,14.69,12.75,14.42,0.0,0.0,2996400.0
01/01/1998,13.89,13.89,11.98,12.75,0.0,0.0,4271199.0
12/01/1997,14.25,14.78,13.11,13.88,0.0,0.0,2596000.0
11/01/1997,13.75,14.39,12.61,14.25,0.0,0.0,1801200.0
10/01/1997,13.98,14.5,13.38,13.73,0.0,0.0,2604000.0
09/01/1997,14.06,14.61,13.53,13.98,0.0,0.0,2914000.0
08/01/1997,12.69,14.06,12.66,14.06,0.0,0.0,2971200.0
07/01/1997,11.25,13.03,11.13,12.72,0.0,0.0,2954400.0
06/01/1997,11.13,11.47,10.69,11.31,0.0,0.0,2470800.0
05/01/1997,10.0,11.09,9.81,11.09,0.0,0.0,2136400.0
04/01/1997,9.59,10.13,8.78,10.0,0.0,0.0,4030398.0
03/01/1997,9.91,10.16,9.38,9.56,0.0,0.0,2466400.0
02/01/1997,8.75,9.94,8.69,9.94,0.0,0.0,3474800.0
01/01/1997,8.78,9.0,8.19,8.38,0.0,0.0,3402800.0
12/01/1996,8.66,8.91,8.19,8.81,0.0,0.0,2855200.0
11/01/1996,8.0,9.03,8.0,8.63,0.0,0.0,2722799.0
10/01/1996,8.06,8.41,7.63,8.06,0.0,0.0,2470800.0
09/01/1996,8.75,8.81,7.91,8.03,0.0,0.0,2447200.0
08/01/1996,8.59,9.28,8.47,8.72,0.0,0.0,2087200.0
07/01/1996,7.59,8.81,7.59,8.31,0.0,0.0,3462400.0
06/01/1996,10.56,10.59,7.25,7.56,0.0,0.0,5982400.0
05/01/1996,9.41,10.59,9.34,10.59,0.0,0.0,4724800.0
04/01/1996,10.38,10.78,9.16,9.41,0.0,0.0,5590000.0
03/01/1996,9.34,10.47,9.19,10.38,0.0,0.0,3866800.0
02/01/1996,9.25,9.47,9.06,9.13,0.0,0.0,2028800.0
01/01/1996,9.28,9.38,8.69,9.31,0.0,0.0,2064400.0
12/01/1995,9.0,9.56,8.78,9.34,0.0,0.0,2252400.0
11/01/1995,8.53,9.0,8.5,9.0,0.0,0.0,2957200.0
10/01/1995,8.25,8.63,7.78,8.56,0.0,0.0,2134000.0
09/01/1995,7.94,8.56,7.91,8.28,0.0,0.0,1201200.0
08/01/1995,8.25,8.34,7.84,7.94,0.0,0.0,2121200.0
07/01/1995,8.03,8.31,7.75,8.31,0.0,0.0,1518400.0
06/01/1995,7.63,8.03,7.63,8.03,0.0,0.0,1783200.0
05/01/1995,7.38,8.0,7.38,7.63,0.0,0.0,1605600.0
04/01/1995,7.13,7.56,6.97,7.38,0.0,0.0,1730800.0
03/01/1995,7.16,7.34,6.59,7.16,0.0,0.0,1622000.0
02/01/1995,6.44,7.28,6.16,7.13,0.0,0.0,1899200.0
01/01/1995,7.13,7.16,6.34,6.44,0.0,0.0,1322400.0
12/01/1994,6.44,7.25,6.22,7.19,0.0,0.0,1635200.0
11/01/1994,6.81,7.13,6.31,6.44,0.0,0.0,2950000.0
10/01/1994,6.75,6.94,6.66,6.81,0.0,0.0,3044400.0
09/01/1994,5.88,6.78,5.75,6.75,0.0,0.0,4242000.0
08/01/1994,6.09,6.13,5.53,5.88,0.0,0.0,599600.0
07/01/1994,5.72,6.19,5.69,6.09,0.0,0.0,336800.0
06/01/1994,6.09,6.41,5.66,5.69,0.0,0.0,786000.0
05/01/1994,5.53,6.13,5.5,6.09,0.0,0.0,1132000.0
04/01/1994,5.5,5.69,5.31,5.59,0.0,0.0,871600.0
03/01/1994,5.53,5.69,5.31,5.34,0.0,0.0,1332800.0
02/01/1994,5.28,5.53,5.13,5.53,0.0,0.0,387600.0
01/01/1994,5.13,5.25,5.03,5.22,0.0,0.0,428400.0
12/01/1993,5.31,5.41,5.03,5.19,0.0,0.0,1009200.0
11/01/1993,5.28,5.44,4.94,5.38,0.0,0.0,815600.0
10/01/1993,5.25,5.5,5.22,5.28,0.0,0.0,1311599.0
09/01/1993,4.75,5.25,4.56,5.25,0.0,0.0,1107600.0
08/01/1993,4.69,4.78,4.59,4.78,0.0,0.0,310400.0
07/01/1993,4.63,4.75,4.47,4.66,0.0,0.0,1335600.0
06/01/1993,4.34,4.63,4.34,4.59,0.0,0.0,1286000.0
05/01/1993,4.47,4.69,4.0,4.31,0.0,0.0,731600.0
