12/30/2022,2030,110.50
12/29/2022,1443,109.92
12/28/2022,1606,111.06
12/27/2022,1052,109.90
12/23/2022,7833,109.14
12/22/2022,9703,109.52
12/21/2022,3315,108.05
12/20/2022,1322,106.41
12/19/2022,7697,107.32
12/16/2022,78270,107.12
12/15/2022,2422,107.70
12/14/2022,2203,108.44
12/13/2022,3428,110.36
12/12/2022,8305,108.48
12/09/2022,1763,107.83
12/08/2022,1318,106.45
12/07/2022,878,106.73
12/06/2022,1642,106.55
12/05/2022,5309,106.86
12/02/2022,2819,106.25
12/01/2022,2163,106.78
11/30/2022,3253,102.89
11/29/2022,2336,103.00
11/28/2022,1048,105.07
11/25/2022,2647,106.55
11/23/2022,2075,105.99
11/22/2022,1277,105.24
11/21/2022,1300,106.09
11/18/2022,4600,106.11
11/17/2022,4700,103.81
11/16/2022,2591,104.86
11/15/2022,1641,105.83
11/14/2022,3213,103.62
11/11/2022,2281,102.84
11/10/2022,2023,102.85
11/09/2022,1550,100.23
11/08/2022,1863,101.06
11/07/2022,1364,99.12
11/04/2022,5194,96.44
11/03/2022,3417,94.28
11/02/2022,1709,97.21
11/01/2022,2790,99.60
10/31/2022,5370,99.96
10/28/2022,4173,101.94
10/27/2022,1781,99.12
10/26/2022,1563,99.85
10/25/2022,9666,96.48
10/24/2022,1711,97.87
10/21/2022,4753,95.56
10/20/2022,1406,98.08
10/19/2022,2428,98.71
10/18/2022,16594,99.04
10/17/2022,5074,96.02
10/14/2022,3663,95.40
10/13/2022,7094,91.07
10/12/2022,4255,94.76
10/11/2022,1959,93.80
10/10/2022,1262,94.38
10/07/2022,1365,96.93
10/06/2022,1787,97.56
10/05/2022,3085,98.13
10/04/2022,2714,99.13
10/03/2022,4844,96.46
09/30/2022,6588,96.12
09/29/2022,993,97.23
09/28/2022,4296,96.75
09/27/2022,2251,97.99
09/26/2022,1458,97.50
09/23/2022,2638,96.96
09/22/2022,2044,99.15
09/21/2022,7857,101.78
09/20/2022,2541,103.45
09/19/2022,8894,101.85
09/16/2022,132134,104.33
09/15/2022,2649,103.25
09/14/2022,2262,103.81
09/13/2022,2042,105.29
09/12/2022,1134,107.18
09/09/2022,1271,105.39
09/08/2022,1607,102.25
09/07/2022,18358,100.64
09/06/2022,3956,101.27
09/02/2022,5484,103.32
09/01/2022,2235,102.42
08/31/2022,1325,104.38
08/30/2022,1958,104.29
08/29/2022,2442,103.97
08/26/2022,1064,109.55
08/25/2022,848,107.54
08/24/2022,795,107.37
08/23/2022,1656,107.84
08/22/2022,4646,109.19
08/19/2022,4640,111.19
08/18/2022,3004,110.94
08/17/2022,3330,111.00
08/16/2022,3603,111.19
08/15/2022,5535,110.69
08/12/2022,777,110.51
08/11/2022,3944,110.63
08/10/2022,2004,109.23
08/09/2022,1633,107.76
08/08/2022,2803,106.12
08/05/2022,4190,105.67
08/04/2022,2452,107.19
08/03/2022,3051,107.33
08/02/2022,2369,107.86
08/01/2022,8887,106.30
07/29/2022,3635,107.06
07/28/2022,1655,106.05
07/27/2022,1698,104.24
07/26/2022,3147,103.15
07/25/2022,3858,103.74
07/22/2022,2453,103.61
07/21/2022,2886,101.91
07/20/2022,4110,100.67
07/19/2022,5866,98.62
07/18/2022,1538,100.58
07/15/2022,2889,100.80
07/14/2022,2402,99.58
07/13/2022,2565,99.73
07/12/2022,2503,99.47
07/11/2022,1806,99.80
07/08/2022,1307,102.68
07/07/2022,2914,102.45
07/06/2022,1963,103.53
07/05/2022,1772,103.34
07/01/2022,7820,103.30
06/30/2022,1482,102.33
06/29/2022,2620,102.48
06/28/2022,1900,104.22
06/27/2022,1676,102.62
06/24/2022,4989,100.05
06/23/2022,1389,98.63
06/22/2022,1830,96.37
06/21/2022,4171,98.00
06/17/2022,134270,94.49
06/16/2022,10472,98.21
06/15/2022,2204,100.53
06/14/2022,1308,101.62
06/13/2022,1866,102.82
06/10/2022,2387,103.58
06/09/2022,1957,106.74
06/08/2022,4564,108.96
06/07/2022,1588,108.64
06/06/2022,2670,109.57
06/03/2022,1684,108.72
06/02/2022,1300,107.60
06/01/2022,1815,107.46
05/31/2022,1754,108.35
05/27/2022,714,106.95
05/26/2022,3760,105.70
05/25/2022,5591,103.47
05/24/2022,8388,104.52
05/23/2022,3254,100.94
05/20/2022,3409,104.99
05/19/2022,2197,103.41
05/18/2022,2513,108.02
05/17/2022,3017,110.12
05/16/2022,2147,107.30
05/13/2022,1325,106.98
05/12/2022,1550,103.72
05/11/2022,2061,104.45
05/10/2022,6016,107.56
05/09/2022,959,110.00
05/06/2022,1497,111.70
05/05/2022,1939,115.49
05/04/2022,7055,113.39
05/03/2022,3622,112.93
05/02/2022,7897,115.42
04/29/2022,1947,112.68
04/28/2022,1059,111.18
04/27/2022,1598,110.94
04/26/2022,1860,114.40
04/25/2022,1930,116.20
04/22/2022,1664,118.59
04/21/2022,3396,120.26
04/20/2022,1930,118.00
04/19/2022,1237,114.45
04/18/2022,3591,116.78
04/14/2022,1358,117.40
04/13/2022,1148,116.89
04/12/2022,1446,119.24
04/11/2022,1185,121.13
04/08/2022,2393,119.81
04/07/2022,5507,117.91
04/06/2022,2366,117.28
04/05/2022,1853,117.65
04/04/2022,1248,118.73
04/01/2022,3016,118.15
03/31/2022,965,118.48
03/30/2022,2725,119.56
03/29/2022,3397,117.51
03/28/2022,3146,117.43
03/25/2022,2728,116.79
03/24/2022,1378,115.00
03/23/2022,1659,117.81
03/22/2022,1368,119.78
03/21/2022,1089,117.73
03/18/2022,59061,118.10
03/17/2022,1844,116.82
03/16/2022,1978,117.72
03/15/2022,1529,115.10
03/14/2022,1531,112.84
03/11/2022,1574,113.30
03/10/2022,3319,111.96
03/09/2022,3279,111.28
03/08/2022,2814,116.96
03/07/2022,3278,119.29
03/04/2022,9296,118.10
03/03/2022,1425,118.89
03/02/2022,4494,119.08
03/01/2022,6007,121.97
02/28/2022,10451,119.49
02/25/2022,2793,117.39
02/24/2022,15094,116.67
02/23/2022,2298,119.80
02/22/2022,6312,118.50
02/18/2022,5727,116.12
02/17/2022,2846,113.92
02/16/2022,2504,114.26
02/15/2022,4070,114.66
02/14/2022,1890,113.68
02/11/2022,2000,115.15
02/10/2022,2761,115.51
02/09/2022,2256,117.14
02/08/2022,3753,114.96
02/07/2022,1729,115.62
02/04/2022,3161,114.68
02/03/2022,2600,116.43
02/02/2022,3110,116.71
02/01/2022,4776,117.28
01/31/2022,2088,115.05
01/28/2022,3186,113.82
01/27/2022,3150,115.74
01/26/2022,7387,115.76
01/25/2022,2993,114.73
01/24/2022,3149,115.63
01/21/2022,2342,119.07
01/20/2022,3948,120.84
01/19/2022,1937,120.76
01/18/2022,3658,120.61
01/14/2022,849,121.27
01/13/2022,4782,120.99
01/12/2022,2060,122.31
01/11/2022,1491,122.35
01/10/2022,5021,122.95
01/07/2022,2020,122.74
01/06/2022,2052,123.53
01/05/2022,2073,121.26
01/04/2022,1428,120.75
01/03/2022,4359,122.61
