11/09/2023,1504,125.66
11/08/2023,934,124.88
11/07/2023,2528,124.61
11/06/2023,2524,125.27
11/03/2023,2271,124.43
11/02/2023,3225,123.72
11/01/2023,1704,122.11
10/31/2023,2925,122.50
10/30/2023,2933,121.87
10/27/2023,6116,123.48
10/26/2023,8989,121.31
10/25/2023,3178,122.55
10/24/2023,3708,122.13
10/23/2023,3226,121.72
10/20/2023,10349,125.85
10/19/2023,3881,126.08
10/18/2023,1715,126.87
10/17/2023,1922,126.01
10/16/2023,3841,127.32
10/13/2023,3172,126.00
10/12/2023,4629,127.22
10/11/2023,1978,126.78
10/10/2023,1234,127.24
10/09/2023,1927,125.82
10/06/2023,3847,123.62
10/05/2023,1970,123.96
10/04/2023,3067,123.54
10/03/2023,2848,124.01
10/02/2023,7970,124.53
09/29/2023,2784,126.27
09/28/2023,7325,123.86
09/27/2023,1360,124.04
09/26/2023,5990,123.55
09/25/2023,7578,122.01
09/22/2023,898,122.28
09/21/2023,3030,124.33
09/20/2023,2090,125.84
09/19/2023,2271,125.70
09/18/2023,5558,126.36
09/15/2023,55159,126.49
09/14/2023,5923,126.01
09/13/2023,6857,125.78
09/12/2023,10001,126.82
09/11/2023,10539,126.99
09/08/2023,2945,125.51
09/07/2023,3808,126.29
09/06/2023,1603,127.79
09/05/2023,7263,131.67
09/01/2023,7082,133.13
08/31/2023,2178,133.28
08/30/2023,4537,132.35
08/29/2023,6535,129.79
08/28/2023,4813,127.68
08/25/2023,4676,125.57
08/24/2023,5506,123.48
08/23/2023,4922,123.08
08/22/2023,7574,123.87
08/21/2023,2496,123.15
08/18/2023,4887,121.40
08/17/2023,1798,121.98
08/16/2023,1711,121.73
08/15/2023,2446,122.62
08/14/2023,1614,122.00
08/11/2023,1161,121.52
08/10/2023,2143,121.79
08/09/2023,1350,121.12
08/08/2023,3104,119.96
08/07/2023,819,120.72
08/04/2023,1329,120.60
08/03/2023,1338,121.53
08/02/2023,1548,121.42
08/01/2023,4467,121.22
07/31/2023,7130,123.52
07/28/2023,7870,124.94
07/27/2023,2257,120.07
07/26/2023,1334,120.16
07/25/2023,4033,119.68
07/24/2023,2068,120.03
07/21/2023,2683,119.64
07/20/2023,7517,119.78
07/19/2023,1598,118.75
07/18/2023,2186,119.14
07/17/2023,4824,118.36
07/14/2023,5075,117.69
07/13/2023,923,116.85
07/12/2023,1246,116.56
07/11/2023,2076,114.31
07/10/2023,2661,113.30
07/07/2023,1468,112.65
07/06/2023,2583,112.28
07/05/2023,3451,115.62
07/03/2023,1944,115.42
06/30/2023,2569,115.20
06/29/2023,2633,113.42
06/28/2023,1016,114.71
06/27/2023,1525,113.80
06/26/2023,2600,113.13
06/23/2023,2073,112.92
06/22/2023,1804,113.79
06/21/2023,1308,115.12
06/20/2023,5219,116.91
06/16/2023,79118,115.65
06/15/2023,3014,115.11
06/14/2023,2275,115.61
06/13/2023,2304,115.60
06/12/2023,2670,114.67
06/09/2023,1530,115.06
06/08/2023,6011,115.52
06/07/2023,1476,114.36
06/06/2023,1156,113.03
06/05/2023,6705,113.80
06/02/2023,2404,114.00
06/01/2023,980,112.82
05/31/2023,928,113.44
05/30/2023,1689,114.21
05/26/2023,2749,112.99
05/25/2023,4418,114.29
05/24/2023,636,117.19
05/23/2023,1161,117.40
05/22/2023,1664,118.67
05/19/2023,1711,119.88
05/18/2023,1388,118.18
05/17/2023,2728,118.82
05/16/2023,950,120.58
05/15/2023,2232,120.60
05/12/2023,1334,119.69
05/11/2023,2452,119.48
05/10/2023,2581,121.09
05/09/2023,1686,120.87
05/08/2023,6326,121.89
05/05/2023,9488,119.01
05/04/2023,4165,119.94
05/03/2023,1806,120.47
05/02/2023,4876,120.50
05/01/2023,5403,119.41
04/28/2023,2547,116.51
04/27/2023,1824,115.73
04/26/2023,3268,117.02
04/25/2023,1730,119.43
04/24/2023,2915,120.85
04/21/2023,3388,119.32
04/20/2023,10818,119.00
04/19/2023,663,118.37
04/18/2023,1681,119.73
04/17/2023,1236,119.50
04/14/2023,2260,119.18
04/13/2023,1177,118.35
04/12/2023,1161,119.36
04/11/2023,1563,119.20
04/10/2023,783,118.38
04/06/2023,2661,119.34
04/05/2023,1898,117.76
04/04/2023,2069,118.49
04/03/2023,1807,117.94
03/31/2023,1761,116.56
03/30/2023,4867,116.15
03/29/2023,1319,115.67
03/28/2023,2247,113.71
03/27/2023,3188,113.47
03/24/2023,915,111.02
03/23/2023,3608,112.15
03/22/2023,653,112.80
03/21/2023,925,114.14
03/20/2023,3285,111.79
03/17/2023,88992,112.92
03/16/2023,5545,110.20
03/15/2023,1453,113.45
03/14/2023,2409,113.88
03/13/2023,2319,111.56
03/10/2023,1578,114.63
03/09/2023,797,115.96
03/08/2023,1063,116.42
03/07/2023,1213,116.66
03/06/2023,2926,120.09
03/03/2023,1823,118.97
03/02/2023,2834,117.40
03/01/2023,1499,116.22
02/28/2023,922,116.65
02/27/2023,1872,115.79
02/24/2023,3133,113.80
02/23/2023,3188,114.82
02/22/2023,6069,114.62
02/21/2023,15685,116.40
02/17/2023,10232,114.97
02/16/2023,2291,108.72
02/15/2023,1377,108.84
02/14/2023,2331,110.19
02/13/2023,1456,109.39
02/10/2023,1487,109.00
02/09/2023,1166,111.48
02/08/2023,855,111.71
02/07/2023,1136,112.67
02/06/2023,1587,114.55
02/03/2023,2866,116.56
02/02/2023,10913,117.09
02/01/2023,4854,114.46
01/31/2023,1267,113.77
01/30/2023,10167,111.71
01/27/2023,976,112.51
01/26/2023,924,112.50
01/25/2023,2361,111.86
01/24/2023,112,113.78
01/23/2023,1946,113.20
01/20/2023,4865,112.48
01/19/2023,6137,111.45
01/18/2023,2542,114.49
01/17/2023,2298,114.17
01/13/2023,2194,113.21
01/12/2023,2686,113.71
01/11/2023,4564,113.58
01/10/2023,1827,113.19
01/09/2023,4601,114.63
01/06/2023,3160,113.22
01/05/2023,1021,110.64
01/04/2023,2629,111.26
01/03/2023,2409,110.59
