06/23/2023,2073,112.92
06/22/2023,1804,113.79
06/21/2023,1308,115.12
06/20/2023,5219,116.91
06/16/2023,79118,115.65
06/15/2023,3014,115.11
06/14/2023,2275,115.61
06/13/2023,2304,115.60
06/12/2023,2670,114.67
06/09/2023,1530,115.06
06/08/2023,6011,115.52
06/07/2023,1476,114.36
06/06/2023,1156,113.03
06/05/2023,6705,113.80
06/02/2023,2404,114.00
06/01/2023,980,112.82
05/31/2023,928,113.44
05/30/2023,1689,114.21
05/26/2023,2749,112.99
05/25/2023,4418,114.29
05/24/2023,636,117.19
05/23/2023,1161,117.40
05/22/2023,1664,118.67
05/19/2023,1711,119.88
05/18/2023,1388,118.18
05/17/2023,2728,118.82
05/16/2023,950,120.58
05/15/2023,2232,120.60
05/12/2023,1334,119.69
05/11/2023,2452,119.48
05/10/2023,2581,121.09
05/09/2023,1686,120.87
05/08/2023,6326,121.89
05/05/2023,9488,119.01
05/04/2023,4165,119.94
05/03/2023,1806,120.47
05/02/2023,4876,120.50
05/01/2023,5403,119.41
04/28/2023,2547,116.51
04/27/2023,1824,115.73
04/26/2023,3268,117.02
04/25/2023,1730,119.43
04/24/2023,2915,120.85
04/21/2023,3388,119.32
04/20/2023,10818,119.00
04/19/2023,663,118.37
04/18/2023,1681,119.73
04/17/2023,1236,119.50
04/14/2023,2260,119.18
04/13/2023,1177,118.35
04/12/2023,1161,119.36
04/11/2023,1563,119.20
04/10/2023,783,118.38
04/06/2023,2661,119.34
04/05/2023,1898,117.76
04/04/2023,2069,118.49
04/03/2023,1807,117.94
03/31/2023,1761,116.56
03/30/2023,4867,116.15
03/29/2023,1319,115.67
03/28/2023,2247,113.71
03/27/2023,3188,113.47
03/24/2023,915,111.02
03/23/2023,3608,112.15
03/22/2023,653,112.80
03/21/2023,925,114.14
03/20/2023,3285,111.79
03/17/2023,88992,112.92
03/16/2023,5545,110.20
03/15/2023,1453,113.45
03/14/2023,2409,113.88
03/13/2023,2319,111.56
03/10/2023,1578,114.63
03/09/2023,797,115.96
03/08/2023,1063,116.42
03/07/2023,1213,116.66
03/06/2023,2926,120.09
03/03/2023,1823,118.97
03/02/2023,2834,117.40
03/01/2023,1499,116.22
02/28/2023,922,116.65
02/27/2023,1872,115.79
02/24/2023,3133,113.80
02/23/2023,3188,114.82
02/22/2023,6069,114.62
02/21/2023,15685,116.40
02/17/2023,10232,114.97
02/16/2023,2291,108.72
02/15/2023,1377,108.84
02/14/2023,2331,110.19
02/13/2023,1456,109.39
02/10/2023,1487,109.00
02/09/2023,1166,111.48
02/08/2023,855,111.71
02/07/2023,1136,112.67
02/06/2023,1587,114.55
02/03/2023,2866,116.56
02/02/2023,10913,117.09
02/01/2023,4854,114.46
01/31/2023,1267,113.77
01/30/2023,10167,111.71
01/27/2023,976,112.51
01/26/2023,924,112.50
01/25/2023,2361,111.86
01/24/2023,112,113.78
01/23/2023,1946,113.20
01/20/2023,4865,112.48
01/19/2023,6137,111.45
01/18/2023,2542,114.49
01/17/2023,2298,114.17
01/13/2023,2194,113.21
01/12/2023,2686,113.71
01/11/2023,4564,113.58
01/10/2023,1827,113.19
01/09/2023,4601,114.63
01/06/2023,3160,113.22
01/05/2023,1021,110.64
01/04/2023,2629,111.26
01/03/2023,2409,110.59
