10/01/2022,109.64,120.02,113.07,101.5,75.69
07/01/2022,111.51,120.22,111.89,99.96,74.54
04/01/2022,120.68,120.67,111.45,98.91,73.59
01/01/2022,128.37,121.91,110.64,97.7,72.46
10/01/2021,132.25,122.0,108.61,95.8,71.06
07/01/2021,130.39,122.19,106.16,93.95,69.51
04/01/2021,128.92,120.89,104.06,92.18,67.95
01/01/2021,120.66,116.22,100.98,89.74,66.01
10/01/2020,115.45,112.82,97.81,87.03,64.11
07/01/2020,111.76,108.47,94.6,84.3,62.27
04/01/2020,113.99,106.13,92.24,82.44,60.79
01/01/2020,112.87,103.56,89.83,80.3,59.35
10/01/2019,111.77,102.24,88.03,78.7,58.13
07/01/2019,110.2,99.37,85.59,76.55,56.64
04/01/2019,105.18,95.22,82.7,74.43,55.03
01/01/2019,98.28,90.13,79.84,72.02,53.32
10/01/2018,94.26,87.23,77.82,69.97,51.87
07/01/2018,92.71,85.74,76.51,68.58,50.63
04/01/2018,88.53,82.81,74.13,66.66,49.14
01/01/2018,85.25,80.73,72.22,65.13,47.88
10/01/2017,81.98,78.35,70.59,63.66,46.65
07/01/2017,80.2,76.09,68.67,62.04,45.47
04/01/2017,78.77,73.82,66.94,60.48,44.26
01/01/2017,77.08,71.81,65.15,58.77,43.07
10/01/2016,76.21,70.18,64.04,57.45,42.08
07/01/2016,74.71,69.54,62.97,56.13,41.15
04/01/2016,71.98,68.41,61.33,54.59,40.12
01/01/2016,68.86,67.28,59.99,53.12,39.07
10/01/2015,66.55,65.45,58.58,51.81,38.02
07/01/2015,64.16,63.71,57.33,50.79,37.05
04/01/2015,64.37,62.84,56.31,49.89,36.15
01/01/2015,64.83,61.24,55.01,49.13,35.31
10/01/2014,65.69,60.06,53.81,48.27,34.48
07/01/2014,64.35,58.48,52.25,47.23,33.57
04/01/2014,63.25,57.89,51.08,46.32,32.79
01/01/2014,61.32,56.4,49.42,45.07,31.92
10/01/2013,57.64,54.26,47.67,43.72,31.03
07/01/2013,54.42,52.71,46.05,42.28,30.14
04/01/2013,52.61,51.71,44.99,41.2,29.32
01/01/2013,52.52,50.95,44.33,40.23,28.66
10/01/2012,51.48,49.78,43.41,39.15,27.96
07/01/2012,50.87,48.79,43.07,38.4,27.39
04/01/2012,51.0,47.55,42.38,37.55,26.77
01/01/2012,50.82,46.02,41.6,36.72,26.1
10/01/2011,49.38,44.28,40.54,35.63,25.35
07/01/2011,48.08,42.44,39.41,34.62,24.63
04/01/2011,46.71,41.09,38.44,33.77,24.02
01/01/2011,44.11,39.38,37.07,32.68,23.27
10/01/2010,41.23,38.28,35.94,31.62,22.61
07/01/2010,39.19,37.72,34.87,30.63,21.97
04/01/2010,36.81,37.04,33.83,29.65,21.35
01/01/2010,35.47,37.35,33.21,28.91,20.85
10/01/2009,34.65,37.2,32.54,28.04,20.31
07/01/2009,35.32,37.18,32.07,27.37,19.84
04/01/2009,36.24,36.79,31.31,26.7,19.33
01/01/2009,37.27,36.37,30.71,26.16,18.86
10/01/2008,39.23,35.8,30.11,25.65,18.43
07/01/2008,39.75,34.76,29.33,25.02,17.93
04/01/2008,39.04,33.61,28.29,24.22,17.36
01/01/2008,37.35,32.02,27.09,23.32,16.74
10/01/2007,35.47,30.62,25.95,22.42,0.0
07/01/2007,32.37,29.07,24.69,21.5,0.0
04/01/2007,29.76,27.88,23.47,20.69,0.0
01/01/2007,28.17,26.96,22.46,19.92,0.0
10/01/2006,26.7,25.82,21.66,19.25,0.0
07/01/2006,25.78,25.05,21.06,18.77,0.0
04/01/2006,25.77,24.42,20.58,18.35,0.0
01/01/2006,26.0,23.89,20.15,17.99,0.0
10/01/2005,25.76,22.97,19.53,17.45,0.0
07/01/2005,24.93,22.16,18.96,17.1,0.0
04/01/2005,24.32,21.28,18.32,16.77,0.0
01/01/2005,23.08,20.31,17.72,16.39,0.0
10/01/2004,21.78,19.05,17.09,15.98,0.0
07/01/2004,20.18,17.95,16.4,15.48,0.0
04/01/2004,19.38,17.5,15.97,15.07,0.0
01/01/2004,18.24,17.07,15.62,14.63,0.0
10/01/2003,17.53,16.74,15.31,14.26,0.0
07/01/2003,16.32,16.41,15.04,13.86,0.0
04/01/2003,15.72,16.1,14.69,13.6,0.0
01/01/2003,15.63,15.77,14.57,13.31,0.0
10/01/2002,15.89,15.35,14.51,13.05,0.0
07/01/2002,15.95,15.14,14.43,12.79,0.0
04/01/2002,16.51,15.13,14.45,12.58,0.0
01/01/2002,16.48,14.85,14.25,12.31,0.0
10/01/2001,15.91,14.43,13.85,11.95,0.0
07/01/2001,14.8,14.18,13.42,11.56,0.0
04/01/2001,14.32,13.89,13.02,11.21,0.0
01/01/2001,13.75,13.67,12.59,10.84,0.0
10/01/2000,13.21,13.29,12.35,10.51,0.0
07/01/2000,12.95,13.37,12.08,10.17,0.0
04/01/2000,13.56,13.68,11.89,0.0,0.0
01/01/2000,13.46,13.71,11.62,0.0,0.0
10/01/1999,13.59,13.78,11.31,0.0,0.0
07/01/1999,13.36,13.65,11.04,0.0,0.0
04/01/1999,13.79,13.27,10.71,0.0,0.0
01/01/1999,13.8,12.65,10.25,0.0,0.0
10/01/1998,13.97,12.16,9.86,0.0,0.0
07/01/1998,13.96,11.51,9.42,0.0,0.0
04/01/1998,13.95,11.41,9.12,0.0,0.0
01/01/1998,12.75,10.79,8.57,0.0,0.0
10/01/1997,11.51,10.11,0.0,0.0,0.0
07/01/1997,10.34,9.53,0.0,0.0,0.0
04/01/1997,9.05,8.85,0.0,0.0,0.0
01/01/1997,8.87,8.43,0.0,0.0,0.0
10/01/1996,8.82,8.15,0.0,0.0,0.0
07/01/1996,8.72,7.84,0.0,0.0,0.0
04/01/1996,8.72,7.57,0.0,0.0,0.0
01/01/1996,8.64,7.34,0.0,0.0,0.0
10/01/1995,8.0,6.82,0.0,0.0,0.0
07/01/1995,7.48,6.35,0.0,0.0,0.0
04/01/1995,6.96,0.0,0.0,0.0,0.0
01/01/1995,6.43,0.0,0.0,0.0,0.0
10/01/1994,6.03,0.0,0.0,0.0,0.0
07/01/1994,5.64,0.0,0.0,0.0,0.0
04/01/1994,5.21,0.0,0.0,0.0,0.0
01/01/1994,0.0,0.0,0.0,0.0,0.0
10/01/1993,0.0,0.0,0.0,0.0,0.0
07/01/1993,0.0,0.0,0.0,0.0,0.0
05/01/1993,0.0,0.0,0.0,0.0,0.0
