12/26/2022,108.71,105.96,103.22,103.41,110.36
12/19/2022,107.89,104.72,103.27,103.37,110.71
12/12/2022,107.1,103.23,103.06,103.33,110.89
12/05/2022,106.46,101.88,103.07,103.08,111.23
11/28/2022,104.6,100.58,102.85,103.06,111.57
11/21/2022,103.22,99.58,102.45,103.16,111.84
11/14/2022,101.54,99.25,102.15,103.46,112.1
11/07/2022,99.35,99.29,102.07,103.81,112.34
10/31/2022,97.3,99.01,101.99,104.25,112.63
10/24/2022,96.55,99.57,101.93,105.01,113.08
10/17/2022,95.94,100.47,102.13,105.6,113.64
10/10/2022,96.96,101.83,102.7,106.26,114.26
10/03/2022,99.23,102.89,103.39,107.02,114.9
09/26/2022,100.72,104.27,103.67,107.63,115.55
09/19/2022,102.59,105.12,104.3,108.47,116.11
09/12/2022,105.01,105.32,104.96,109.23,116.62
09/05/2022,106.7,105.05,105.57,109.75,117.18
08/29/2022,106.55,104.86,106.08,110.0,117.73
08/22/2022,107.81,104.98,106.87,110.46,118.39
08/15/2022,107.65,104.29,107.72,110.81,118.99
08/08/2022,105.62,103.79,108.17,111.02,119.5
08/01/2022,103.41,103.56,108.48,111.36,119.99
07/25/2022,103.17,103.89,109.08,111.96,120.66
07/18/2022,102.15,103.08,109.31,112.45,121.29
07/11/2022,100.93,103.48,110.14,112.87,122.01
07/04/2022,101.96,104.6,111.18,113.4,122.84
06/27/2022,103.72,106.08,112.11,114.06,123.73
06/20/2022,104.6,107.29,112.57,114.54,124.62
06/13/2022,104.02,108.77,113.2,115.34,125.42
06/06/2022,106.02,111.16,114.08,116.43,126.32
05/30/2022,107.23,112.54,114.64,117.3,127.04
05/23/2022,108.44,113.39,115.25,118.06,127.64
05/16/2022,109.98,114.27,115.99,118.46,128.22
05/09/2022,113.52,115.53,117.13,119.39,128.98
05/02/2022,116.3,116.8,117.57,120.08,129.51
04/25/2022,117.86,117.77,117.81,120.52,130.0
04/18/2022,118.34,118.13,118.05,120.75,130.32
04/11/2022,118.56,117.84,118.16,120.87,130.54
04/04/2022,117.54,117.63,118.62,121.0,130.79
03/28/2022,117.3,116.99,119.06,121.15,131.18
03/21/2022,117.69,116.73,119.68,121.69,131.54
03/14/2022,117.93,117.12,120.39,122.26,131.8
03/07/2022,117.12,117.72,120.55,122.79,132.14
02/28/2022,117.71,118.73,121.32,123.48,132.58
02/21/2022,116.69,118.35,121.72,123.75,132.9
02/14/2022,115.77,117.84,121.9,124.02,133.16
02/07/2022,116.32,117.97,122.06,124.61,133.45
01/31/2022,118.31,118.48,122.39,125.46,133.79
01/24/2022,119.75,119.61,122.69,126.32,134.04
01/17/2022,120.01,121.12,123.23,127.17,134.26
01/10/2022,119.91,122.64,124.16,127.98,134.44
01/03/2022,119.62,123.67,124.83,128.62,134.55
12/27/2021,118.65,123.38,125.32,129.35,134.57
12/20/2021,119.47,123.91,125.85,130.12,134.59
12/13/2021,122.24,125.1,126.46,131.16,134.55
12/06/2021,125.36,125.96,127.11,132.28,134.59
11/29/2021,127.71,126.14,127.93,133.41,134.54
11/22/2021,128.11,126.3,128.95,134.7,134.5
11/15/2021,128.34,125.76,129.67,135.51,134.27
11/08/2021,127.95,125.33,130.19,136.22,133.97
11/01/2021,126.56,125.69,130.66,136.77,133.7
10/25/2021,124.57,126.0,131.09,137.23,133.48
10/18/2021,124.49,127.27,132.34,137.99,133.45
10/11/2021,123.18,127.8,133.23,138.56,133.28
10/04/2021,122.7,127.82,134.19,138.93,133.11
09/27/2021,124.83,128.26,135.44,139.47,133.01
09/20/2021,127.42,129.73,137.04,139.89,132.97
09/13/2021,130.05,131.6,138.9,140.22,132.89
09/06/2021,132.42,133.59,140.38,140.58,132.85
08/30/2021,132.94,135.05,141.66,141.21,132.74
08/23/2021,131.69,135.62,142.31,141.39,132.4
08/16/2021,132.03,136.18,142.84,141.34,132.08
08/09/2021,133.14,137.41,143.36,141.5,131.65
08/02/2021,134.76,138.66,143.95,141.69,131.22
07/26/2021,137.16,140.55,144.49,142.04,130.84
07/19/2021,139.56,142.62,145.08,142.31,130.58
07/12/2021,140.33,144.35,144.97,142.29,130.16
07/05/2021,141.69,146.2,144.53,142.13,129.6
06/28/2021,142.56,147.17,144.08,141.77,128.94
06/21/2021,143.94,148.27,144.29,141.34,128.39
06/14/2021,145.69,148.99,144.28,140.89,127.81
06/07/2021,148.37,149.5,143.92,140.48,127.21
05/31/2021,150.72,149.3,143.54,139.79,126.5
05/24/2021,151.77,149.23,143.2,139.05,125.86
05/17/2021,152.6,148.43,142.79,137.95,124.97
05/10/2021,152.29,147.54,142.15,136.9,124.04
05/03/2021,150.62,145.6,141.26,135.67,123.03
04/26/2021,147.88,142.85,140.09,134.31,122.01
04/19/2021,146.68,140.99,139.07,133.04,121.28
04/12/2021,144.26,140.31,137.88,131.73,120.44
04/05/2021,142.79,139.57,136.84,130.63,119.84
03/29/2021,140.57,138.34,135.97,129.73,119.37
03/22/2021,137.81,137.78,135.03,128.9,118.91
03/15/2021,135.3,137.18,133.97,128.01,118.42
03/08/2021,136.36,137.15,132.71,127.29,118.05
03/01/2021,136.34,136.76,131.59,126.55,117.66
02/22/2021,136.11,136.93,130.7,126.05,117.36
02/15/2021,137.74,137.33,130.04,125.56,117.09
02/08/2021,139.06,137.15,129.07,125.11,116.8
02/01/2021,137.94,135.45,127.44,124.27,116.31
01/25/2021,137.19,134.11,126.16,123.41,115.87
01/18/2021,137.74,133.6,125.43,122.81,115.52
01/11/2021,136.92,132.28,124.46,121.8,115.08
01/04/2021,135.24,130.76,123.42,120.75,114.6
12/28/2020,132.96,128.26,122.36,119.63,114.12
12/21/2020,131.03,126.41,121.44,118.85,113.65
12/14/2020,129.46,124.47,120.61,118.04,113.24
12/07/2020,127.65,122.75,119.67,117.07,112.97
11/30/2020,126.28,120.99,119.09,116.11,112.76
11/23/2020,123.56,119.43,118.68,115.43,112.57
11/16/2020,121.78,118.21,118.06,114.73,112.4
11/09/2020,119.49,117.26,117.42,113.94,112.25
11/02/2020,117.84,116.63,116.55,113.2,112.13
10/26/2020,115.69,116.08,115.75,112.66,112.05
10/19/2020,115.29,116.45,115.32,112.0,112.16
10/12/2020,114.63,116.47,115.07,111.18,112.22
10/05/2020,115.03,116.76,114.82,110.39,112.29
09/28/2020,115.41,116.59,114.23,109.71,112.35
09/21/2020,116.47,117.19,113.67,109.52,112.48
09/14/2020,117.61,117.92,113.44,109.16,112.58
09/07/2020,118.3,117.92,112.99,109.05,112.74
08/31/2020,118.48,117.58,112.28,109.0,112.82
08/24/2020,117.77,116.48,111.49,108.93,112.9
08/17/2020,117.92,115.42,110.95,108.84,113.01
08/10/2020,118.24,114.18,109.77,108.82,113.12
08/03/2020,117.53,113.67,108.54,108.78,113.13
07/27/2020,116.67,112.88,107.21,108.67,113.15
07/20/2020,115.18,111.87,106.27,108.63,113.26
07/13/2020,112.93,110.14,105.69,108.5,113.17
07/06/2020,110.12,108.95,104.77,108.35,113.06
06/29/2020,109.81,108.07,104.62,108.32,113.04
06/22/2020,109.09,106.99,104.71,108.22,113.02
06/15/2020,108.57,106.51,105.16,108.37,113.12
06/08/2020,107.35,106.48,105.55,108.45,113.18
06/01/2020,107.78,105.36,106.14,108.61,113.23
05/25/2020,106.33,103.42,106.34,108.46,113.18
05/18/2020,104.88,101.53,106.56,108.44,113.14
05/11/2020,104.45,100.66,107.0,108.87,113.16
05/04/2020,105.6,101.24,107.68,109.41,113.2
04/27/2020,102.93,100.59,108.05,109.7,113.12
04/20/2020,100.5,101.18,108.44,110.08,113.03
04/13/2020,98.18,102.43,108.84,110.56,112.97
04/06/2020,96.87,103.81,109.3,111.06,112.96
03/30/2020,96.88,104.63,109.44,111.44,112.87
03/23/2020,98.25,106.93,110.23,112.32,112.99
03/16/2020,101.85,109.26,110.98,113.27,113.08
03/09/2020,106.68,111.59,111.9,114.19,113.16
03/02/2020,110.74,113.35,112.97,114.99,113.18
02/24/2020,112.39,114.12,113.49,115.45,112.97
02/17/2020,115.6,115.51,114.26,116.01,112.81
02/10/2020,116.66,115.71,114.52,116.43,112.49
02/03/2020,116.49,115.25,114.62,116.65,112.1
01/27/2020,115.96,114.79,114.69,116.88,111.83
01/20/2020,115.86,114.25,114.84,117.18,111.57
01/13/2020,115.43,113.54,115.02,117.42,111.35
01/06/2020,114.76,112.71,115.27,117.49,111.12
12/30/2019,114.01,112.21,115.49,117.63,110.97
12/23/2019,113.63,112.59,115.8,117.89,110.8
12/16/2019,112.65,112.87,116.11,117.84,110.62
12/09/2019,111.65,113.0,116.26,117.77,110.37
12/02/2019,110.66,113.34,116.79,117.76,110.21
11/25/2019,110.4,114.0,117.35,117.81,110.04
11/18/2019,111.55,114.59,117.92,117.87,109.96
11/11/2019,113.08,115.42,118.64,117.91,109.92
11/04/2019,114.36,116.51,119.36,117.85,109.92
10/28/2019,116.02,117.83,119.88,117.9,109.97
10/21/2019,117.6,118.78,120.34,117.83,109.92
10/14/2019,117.63,119.02,120.55,117.45,109.7
10/07/2019,117.76,119.35,120.32,116.98,109.47
09/30/2019,118.67,119.52,120.15,116.54,109.24
09/23/2019,119.64,120.23,119.97,115.98,109.0
09/16/2019,119.96,120.71,119.72,115.38,108.75
09/09/2019,120.4,121.24,119.51,114.85,108.5
09/02/2019,120.94,121.86,119.16,114.3,108.12
08/26/2019,120.37,122.21,118.53,113.65,107.69
08/19/2019,120.82,121.92,117.93,112.89,107.22
08/12/2019,121.45,121.91,117.36,112.13,106.77
08/05/2019,122.08,122.07,116.66,111.38,106.31
07/29/2019,122.79,121.29,115.8,110.5,105.88
07/22/2019,124.05,120.78,115.05,109.6,105.47
07/15/2019,123.03,119.71,113.85,108.54,104.94
07/08/2019,122.37,118.73,112.72,107.55,104.45
07/01/2019,122.07,117.78,111.65,106.78,103.96
06/24/2019,119.8,116.46,110.52,105.95,103.45
06/17/2019,117.52,114.85,109.37,105.28,102.92
06/10/2019,116.4,113.94,108.38,104.76,102.48
06/03/2019,115.1,112.8,107.25,104.3,102.06
05/27/2019,113.49,111.25,106.03,103.71,101.57
05/20/2019,113.12,110.31,105.11,103.4,101.16
05/13/2019,112.17,109.32,104.01,102.98,100.77
05/06/2019,111.48,107.99,102.96,102.66,100.32
04/29/2019,110.51,106.71,101.96,102.26,99.93
04/22/2019,109.01,105.53,101.28,102.04,99.55
04/15/2019,107.5,104.58,100.7,101.92,99.19
04/08/2019,106.46,103.9,100.49,101.99,98.9
04/01/2019,104.5,102.82,100.17,102.04,98.59
03/25/2019,102.91,101.69,100.05,102.02,98.15
03/18/2019,102.04,100.82,99.94,101.96,97.8
03/11/2019,101.66,99.91,99.94,101.96,97.56
03/04/2019,101.33,98.71,99.81,101.95,97.32
02/25/2019,101.15,97.93,100.0,102.01,97.09
02/18/2019,100.46,97.21,100.04,102.12,96.86
02/11/2019,99.59,97.04,100.3,102.15,96.59
02/04/2019,98.15,96.82,100.59,101.95,96.32
01/28/2019,96.09,97.08,101.03,101.73,96.08
01/21/2019,94.72,97.52,101.65,101.55,95.89
01/14/2019,93.95,98.41,102.18,101.41,95.73
01/07/2019,94.48,99.07,102.53,101.24,95.54
12/31/2018,95.49,99.98,102.98,101.25,95.39
12/24/2018,98.08,100.9,103.57,101.34,95.28
12/17/2018,100.32,102.07,104.05,101.34,95.19
12/10/2018,102.87,102.88,104.58,101.36,95.09
12/03/2018,103.66,103.56,104.71,101.13,94.91
11/26/2018,104.46,104.36,104.51,100.95,94.73
11/19/2018,103.73,104.98,104.05,100.55,94.47
11/12/2018,103.81,105.79,103.56,100.21,94.17
11/05/2018,102.88,105.95,102.91,99.81,93.83
10/29/2018,103.46,105.99,102.33,99.43,93.51
10/22/2018,104.25,105.99,101.89,98.92,93.17
10/15/2018,106.24,106.23,101.55,98.57,92.9
10/08/2018,107.77,106.04,100.97,97.98,92.53
10/01/2018,109.02,106.29,100.6,97.6,92.21
09/24/2018,108.53,105.86,99.92,97.05,91.79
09/17/2018,107.74,104.66,99.24,96.45,91.37
09/10/2018,106.23,103.12,98.34,95.81,90.9
09/03/2018,104.31,101.33,97.41,95.14,90.53
08/27/2018,103.55,99.88,96.74,94.28,90.22
08/20/2018,103.19,98.67,96.14,93.65,89.94
08/13/2018,101.58,97.78,95.38,93.16,89.66
08/06/2018,100.01,96.87,94.73,92.69,89.39
07/30/2018,98.35,95.91,93.95,92.16,89.12
07/23/2018,96.2,94.91,93.25,91.59,88.81
07/16/2018,94.15,93.97,92.65,91.03,88.54
07/09/2018,93.98,93.82,92.35,90.7,88.34
07/02/2018,93.73,93.56,92.15,90.44,88.14
06/25/2018,93.47,93.5,92.04,90.24,87.94
06/18/2018,93.61,93.61,91.48,90.04,87.75
06/11/2018,93.8,93.62,91.14,89.83,87.55
06/04/2018,93.67,92.98,90.85,89.52,87.26
05/28/2018,93.39,92.59,90.6,89.23,86.97
05/21/2018,93.53,91.99,90.29,89.04,86.69
05/14/2018,93.6,91.6,89.93,88.83,86.4
05/07/2018,93.44,91.33,89.56,88.68,86.12
04/30/2018,92.28,90.87,89.14,88.5,85.83
04/23/2018,91.8,90.74,88.88,88.38,85.58
04/16/2018,90.46,90.58,88.6,88.14,85.29
04/09/2018,89.6,89.35,88.26,87.85,84.95
04/02/2018,89.22,88.66,87.94,87.58,84.64
03/26/2018,89.46,88.72,87.79,87.43,84.41
03/19/2018,89.69,88.6,87.55,87.23,84.14
03/12/2018,90.7,88.58,87.56,87.08,83.92
03/05/2018,89.11,88.26,87.44,86.82,83.61
02/26/2018,88.09,87.8,87.36,86.53,83.32
02/19/2018,87.98,87.42,87.32,86.28,83.05
02/12/2018,87.51,87.02,87.2,85.99,82.76
02/05/2018,86.45,86.62,86.92,85.91,82.46
01/29/2018,87.4,87.17,87.1,86.16,82.3
01/22/2018,87.5,87.21,87.05,86.23,82.12
01/15/2018,86.85,86.86,86.78,86.16,81.87
01/08/2018,86.53,86.49,86.54,86.1,81.66
01/01/2018,86.79,86.53,86.34,86.08,81.45
12/25/2017,86.93,86.63,86.1,86.03,81.2
12/18/2017,86.93,86.93,85.89,86.04,80.95
12/11/2017,86.88,87.22,85.71,85.99,80.73
12/04/2017,86.46,87.38,85.48,85.83,80.57
11/27/2017,86.27,87.22,85.56,85.65,80.37
11/20/2017,86.34,87.03,85.65,85.46,80.17
11/13/2017,86.93,86.88,85.74,85.26,80.03
11/06/2017,87.56,86.7,85.8,85.01,79.91
10/30/2017,88.3,86.59,85.9,84.7,79.79
10/23/2017,88.17,86.14,85.85,84.34,79.63
10/16/2017,87.73,85.56,85.74,83.98,79.49
10/09/2017,86.83,84.85,85.59,83.56,79.31
10/02/2017,85.83,84.21,85.37,83.17,79.11
09/25/2017,84.89,83.58,85.06,82.77,78.89
09/18/2017,84.1,83.9,84.86,82.43,78.73
09/11/2017,83.39,84.27,84.67,82.05,78.6
09/04/2017,82.88,84.61,84.45,81.69,78.53
08/28/2017,82.58,84.91,84.16,81.39,78.47
08/21/2017,82.27,85.2,83.76,81.05,78.4
08/14/2017,83.69,85.56,83.45,80.76,78.34
08/07/2017,85.15,85.91,83.19,80.41,78.25
07/31/2017,86.34,86.33,82.91,80.12,78.16
07/24/2017,87.24,86.53,82.65,79.82,78.09
07/17/2017,88.14,86.54,82.37,79.53,78.0
07/10/2017,87.43,85.83,81.7,79.0,77.8
07/03/2017,86.67,85.08,80.94,78.45,77.56
06/26/2017,86.32,84.3,80.23,78.0,77.38
06/19/2017,85.82,83.41,79.63,77.59,77.2
06/12/2017,84.93,82.31,78.98,77.23,77.02
06/05/2017,84.23,81.33,78.35,76.82,76.92
05/29/2017,83.48,80.46,77.65,76.36,76.81
05/22/2017,82.27,79.49,77.01,75.86,76.66
05/15/2017,81.0,78.76,76.47,75.48,76.57
05/08/2017,79.69,78.21,76.02,75.31,76.49
05/01/2017,78.43,77.57,75.58,75.1,76.4
04/24/2017,77.45,76.81,75.13,74.89,76.29
04/17/2017,76.71,76.17,74.86,74.79,76.22
04/10/2017,76.53,75.85,74.67,74.82,76.14
04/03/2017,76.73,75.65,74.69,74.88,76.1
03/27/2017,76.7,75.38,74.56,74.92,76.08
03/20/2017,76.18,74.84,74.31,74.99,75.98
03/13/2017,75.63,74.53,74.04,75.05,75.92
03/06/2017,75.18,74.17,73.84,75.04,75.77
02/27/2017,74.57,73.84,73.86,75.0,75.63
02/20/2017,74.05,73.6,73.86,75.02,75.53
02/13/2017,73.51,73.45,73.92,75.15,75.5
02/06/2017,73.43,73.54,74.1,75.37,75.49
01/30/2017,73.17,73.5,74.3,75.54,75.43
01/23/2017,73.11,73.72,74.49,75.74,75.41
01/16/2017,73.14,73.75,74.69,75.93,75.43
01/09/2017,73.4,73.77,75.07,76.1,75.48
01/02/2017,73.65,73.56,75.32,76.2,75.5
12/26/2016,73.82,73.51,75.48,76.35,75.46
12/19/2016,74.34,73.88,75.59,76.48,75.46
12/12/2016,74.35,74.12,75.74,76.6,75.46
12/05/2016,74.13,74.39,76.0,76.68,75.43
11/28/2016,73.47,74.66,76.28,76.75,75.35
11/21/2016,73.2,75.1,76.56,76.81,75.28
11/14/2016,73.42,75.26,76.75,76.81,75.15
11/07/2016,73.89,75.64,77.02,77.01,75.01
10/31/2016,74.65,76.37,77.27,77.26,74.93
10/24/2016,75.85,77.07,77.52,77.46,74.87
10/17/2016,77.01,77.45,77.77,77.66,74.77
10/10/2016,77.09,77.29,77.78,77.67,74.61
10/03/2016,77.38,77.35,77.83,77.7,74.47
09/26/2016,78.08,77.6,77.82,77.7,74.38
09/19/2016,78.3,77.91,77.79,77.65,74.23
09/12/2016,77.89,78.02,77.67,77.47,74.05
09/05/2016,77.49,78.24,77.59,77.31,73.79
08/29/2016,77.32,78.41,77.7,77.24,73.56
08/22/2016,77.12,78.17,77.7,76.97,73.3
08/15/2016,77.52,77.96,77.65,76.79,73.06
08/08/2016,78.15,78.1,77.76,76.5,72.85
08/01/2016,78.99,78.26,77.86,76.25,72.68
07/25/2016,79.5,78.32,77.87,76.03,72.48
07/18/2016,79.22,78.03,77.75,75.85,72.25
07/11/2016,78.4,77.68,77.53,75.61,71.97
07/04/2016,78.05,77.32,77.2,75.31,71.72
06/27/2016,77.53,76.94,76.85,75.08,71.47
06/20/2016,77.13,76.99,76.66,74.92,71.21
06/13/2016,76.84,77.24,76.38,74.86,70.99
06/06/2016,76.97,77.34,76.2,74.8,70.78
05/30/2016,76.58,77.43,75.71,74.57,70.52
05/23/2016,76.34,77.45,75.25,74.44,70.29
05/16/2016,76.85,77.42,74.89,74.32,70.06
05/09/2016,77.64,77.47,74.75,74.19,69.86
05/02/2016,77.71,77.37,74.57,73.95,69.63
04/25/2016,78.28,77.08,74.31,73.75,69.41
04/18/2016,78.55,76.77,74.15,73.49,69.21
04/11/2016,78.0,76.33,73.89,73.01,68.98
04/04/2016,77.3,75.51,73.68,72.61,68.76
03/28/2016,77.03,75.07,73.52,72.28,68.55
03/21/2016,75.88,73.98,73.14,71.88,68.3
03/14/2016,74.98,73.05,72.94,71.56,68.07
03/07/2016,74.66,72.35,72.77,71.25,67.85
02/29/2016,73.73,72.04,72.55,71.06,67.66
02/22/2016,73.11,71.77,72.24,70.82,67.48
02/15/2016,72.09,71.55,72.09,70.63,67.37
02/08/2016,71.13,71.54,71.85,70.26,67.29
02/01/2016,70.04,71.45,71.36,69.88,67.15
01/25/2016,70.35,71.84,71.16,69.63,67.04
01/18/2016,70.43,71.98,70.88,69.33,66.93
01/11/2016,71.0,72.3,70.83,69.2,66.88
01/04/2016,71.96,72.82,70.82,69.11,66.83
12/28/2015,72.85,73.19,70.7,68.93,66.75
12/21/2015,73.33,73.07,70.56,68.65,66.62
12/14/2015,73.52,72.72,70.34,68.34,66.43
12/07/2015,73.61,72.64,70.17,68.12,66.28
11/30/2015,73.69,72.15,69.62,67.86,66.04
11/23/2015,73.53,71.27,69.1,67.49,65.76
11/16/2015,72.81,70.48,68.53,67.12,65.52
11/09/2015,71.92,69.79,68.0,66.76,65.3
11/02/2015,71.66,69.37,67.65,66.47,65.13
10/26/2015,70.61,68.81,67.25,66.14,64.95
10/19/2015,69.0,68.22,66.81,65.79,64.81
10/12/2015,68.15,68.06,66.45,65.52,64.69
10/05/2015,67.66,67.96,66.15,65.3,64.59
09/28/2015,67.07,67.71,65.86,65.06,64.47
09/21/2015,67.01,67.09,65.72,64.94,64.38
09/14/2015,67.43,66.93,65.6,64.95,64.31
09/07/2015,67.97,66.58,65.45,64.92,64.24
08/31/2015,68.25,66.22,65.24,64.82,64.22
08/24/2015,68.35,65.94,65.02,64.72,64.21
08/17/2015,67.16,65.7,64.81,64.57,64.19
08/10/2015,66.43,65.4,64.58,64.44,64.18
08/03/2015,65.19,64.84,64.25,64.26,64.13
07/27/2015,64.19,64.33,63.97,64.15,64.09
07/20/2015,63.53,64.01,63.74,64.11,64.08
07/13/2015,64.23,64.35,63.86,64.32,64.16
07/06/2015,64.36,64.27,63.96,64.42,64.19
06/29/2015,64.48,64.31,64.08,64.46,64.24
06/22/2015,64.48,64.26,64.12,64.54,64.28
06/15/2015,64.48,64.1,64.12,64.56,64.32
06/08/2015,64.47,63.92,64.01,64.56,64.35
06/01/2015,64.18,63.77,63.97,64.57,64.38
05/25/2015,64.14,63.66,63.98,64.58,64.39
05/18/2015,64.04,63.61,64.06,64.53,64.43
05/11/2015,63.71,63.47,64.17,64.45,64.42
05/04/2015,63.37,63.38,64.3,64.23,64.42
04/27/2015,63.36,63.65,64.5,64.04,64.44
04/20/2015,63.19,63.86,64.53,63.91,64.47
04/13/2015,63.18,63.99,64.68,63.84,64.51
04/06/2015,63.23,64.14,64.8,63.79,64.54
03/30/2015,63.39,64.1,64.88,63.76,64.57
03/23/2015,63.93,64.16,64.96,63.83,64.57
03/16/2015,64.53,64.29,65.04,63.86,64.58
03/09/2015,64.79,64.51,64.99,63.88,64.6
03/02/2015,65.04,64.87,64.93,63.88,64.67
02/23/2015,64.81,65.23,64.65,63.82,64.73
02/16/2015,64.39,65.35,64.24,63.66,64.75
02/09/2015,64.05,65.2,63.93,63.57,64.76
02/02/2015,64.23,65.37,63.77,63.62,64.77
01/26/2015,64.69,65.46,63.62,63.69,64.76
01/19/2015,65.64,65.66,63.6,63.82,64.79
01/12/2015,66.32,65.77,63.67,63.93,64.81
01/05/2015,66.35,65.8,63.65,64.0,64.8
12/29/2014,66.51,65.47,63.56,64.03,64.8
12/22/2014,66.23,65.0,63.39,64.04,64.76
12/15/2014,65.68,64.08,63.12,64.0,64.69
12/08/2014,65.22,63.12,62.82,63.96,64.64
12/01/2014,65.24,62.67,62.76,64.01,64.62
11/24/2014,64.44,62.18,62.75,64.03,64.54
11/17/2014,63.77,61.77,62.8,64.07,64.45
11/10/2014,62.49,61.53,62.9,64.14,64.36
11/03/2014,61.03,61.57,63.01,64.2,64.28
10/27/2014,60.09,61.51,63.1,64.2,64.19
10/20/2014,59.92,61.64,63.31,64.32,64.13
10/13/2014,59.77,61.78,63.57,64.4,64.07
10/06/2014,60.57,62.15,63.96,64.6,64.09
09/29/2014,62.11,62.51,64.39,64.84,64.12
09/22/2014,62.92,62.85,64.69,65.03,64.12
09/15/2014,63.37,63.32,64.95,65.18,64.11
09/08/2014,63.79,63.84,65.22,65.3,64.06
09/01/2014,63.73,64.26,65.45,65.37,64.0
08/25/2014,62.91,64.44,65.51,65.31,63.91
08/18/2014,62.78,64.69,65.54,65.3,63.79
08/11/2014,63.27,64.97,65.66,65.33,63.65
08/04/2014,63.88,65.35,65.71,65.46,63.51
07/28/2014,64.8,65.78,65.83,65.65,63.42
07/21/2014,65.98,66.26,66.0,65.84,63.35
07/14/2014,66.6,66.53,66.11,65.95,63.24
07/07/2014,66.67,66.58,66.12,65.93,63.07
06/30/2014,66.83,66.61,66.03,65.84,62.92
06/23/2014,66.75,66.63,65.92,65.76,62.74
06/16/2014,66.55,66.59,65.75,65.69,62.56
06/09/2014,66.45,66.39,65.61,65.61,62.37
06/02/2014,66.48,66.36,65.51,65.56,62.18
05/26/2014,66.4,66.07,65.52,65.47,62.01
05/19/2014,66.51,65.89,65.59,65.38,61.84
05/12/2014,66.62,65.74,65.63,65.32,61.69
05/05/2014,66.34,65.7,65.66,65.22,61.53
04/28/2014,66.23,65.66,65.6,65.05,61.35
04/21/2014,65.75,65.45,65.45,64.83,61.16
04/14/2014,65.27,65.22,65.33,64.58,60.93
04/07/2014,64.86,64.91,65.25,64.37,60.7
03/31/2014,65.06,64.82,65.22,64.18,60.51
03/24/2014,65.09,64.66,65.16,63.93,60.28
03/17/2014,65.16,64.96,65.16,63.75,60.08
03/10/2014,65.16,65.29,65.12,63.58,59.87
03/03/2014,64.96,65.52,65.11,63.41,59.67
02/24/2014,64.57,65.62,64.98,63.22,59.42
02/17/2014,64.24,65.54,64.75,63.03,59.15
02/10/2014,64.76,65.45,64.52,62.81,58.86
02/03/2014,65.41,65.44,64.26,62.64,58.57
01/27/2014,66.08,65.58,64.1,62.51,58.3
01/20/2014,66.67,65.62,63.86,62.27,58.03
01/13/2014,66.84,65.67,63.56,61.96,57.75
01/06/2014,66.14,65.37,63.14,61.55,57.42
12/30/2013,65.46,64.95,62.73,61.19,57.06
12/23/2013,65.08,64.7,62.35,60.86,56.74
12/16/2013,64.57,64.34,62.02,60.52,56.46
12/09/2013,64.49,63.95,61.78,60.22,56.23
12/02/2013,64.6,63.59,61.49,60.0,56.04
11/25/2013,64.44,63.09,61.24,59.73,55.81
11/18/2013,64.31,62.62,60.97,59.43,55.61
11/11/2013,64.11,62.1,60.59,59.13,55.4
11/04/2013,63.41,61.46,60.11,58.81,55.2
10/28/2013,62.59,60.92,59.65,58.56,55.0
10/21/2013,61.74,60.51,59.3,58.3,54.79
10/14/2013,60.93,60.01,58.94,58.07,54.57
10/07/2013,60.1,59.71,58.62,57.84,54.36
09/30/2013,59.51,59.61,58.35,57.65,54.18
09/23/2013,59.24,59.39,58.2,57.48,54.01
09/16/2013,59.28,59.38,58.04,57.28,53.85
09/09/2013,59.09,59.32,57.83,57.03,53.69
09/02/2013,59.31,59.08,57.65,56.83,53.54
08/26/2013,59.71,58.75,57.48,56.63,53.4
08/19/2013,59.53,58.38,57.38,56.41,53.27
08/12/2013,59.48,58.1,57.2,56.15,53.13
08/05/2013,59.55,57.87,57.1,55.92,53.0
07/29/2013,58.85,57.53,56.9,55.62,52.87
07/22/2013,57.8,57.1,56.67,55.26,52.73
07/15/2013,57.22,57.01,56.53,54.9,52.61
07/08/2013,56.71,56.71,56.23,54.51,52.46
07/01/2013,56.18,56.34,55.88,54.09,52.29
06/24/2013,56.2,56.22,55.71,53.79,52.24
06/17/2013,56.4,56.2,55.57,53.54,52.21
06/10/2013,56.81,56.39,55.43,53.29,52.21
06/03/2013,56.7,56.3,55.18,52.93,52.17
05/27/2013,56.5,56.33,54.95,52.63,52.12
05/20/2013,56.23,56.28,54.67,52.39,52.08
05/13/2013,56.0,56.23,54.34,52.24,52.06
05/06/2013,55.97,56.05,53.85,52.08,52.01
04/29/2013,55.89,55.75,53.41,51.9,51.99
04/22/2013,56.16,55.43,52.96,51.79,51.94
04/15/2013,56.33,55.2,52.57,51.67,51.91
04/08/2013,56.46,54.94,52.2,51.59,51.88
04/01/2013,56.13,54.48,51.74,51.44,51.81
03/25/2013,55.6,54.07,51.25,51.28,51.76
03/18/2013,54.7,53.57,50.78,51.06,51.69
03/11/2013,54.07,53.05,50.44,50.88,51.63
03/04/2013,53.43,52.44,50.24,50.71,51.56
02/25/2013,52.83,51.65,50.09,50.53,51.5
02/18/2013,52.54,51.08,49.98,50.42,51.47
02/11/2013,52.44,50.49,49.97,50.35,51.46
02/04/2013,52.03,49.95,49.9,50.25,51.45
01/28/2013,51.45,49.46,49.91,50.16,51.43
01/21/2013,50.47,49.0,49.92,50.13,51.4
01/14/2013,49.62,48.42,49.89,50.1,51.38
01/07/2013,48.54,47.99,49.81,50.08,51.29
12/31/2012,47.87,47.83,49.8,50.12,51.24
12/24/2012,47.48,48.04,49.85,50.21,51.22
12/17/2012,47.53,48.54,49.97,50.31,51.24
12/10/2012,47.22,48.88,50.09,50.4,51.27
12/03/2012,47.44,49.45,50.28,50.5,51.29
11/26/2012,47.8,49.85,50.4,50.69,51.31
11/19/2012,48.59,50.35,50.5,50.89,51.28
11/12/2012,49.54,50.83,50.7,51.13,51.23
11/05/2012,50.55,51.36,50.94,51.42,51.23
10/29/2012,51.46,51.63,51.12,51.62,51.25
10/22/2012,51.9,51.76,51.26,51.78,51.23
10/15/2012,52.1,51.66,51.3,51.89,51.17
10/08/2012,52.13,51.41,51.2,51.95,51.1
10/01/2012,52.18,51.29,51.17,52.07,51.03
09/24/2012,51.8,51.1,51.02,52.1,50.95
09/17/2012,51.62,50.94,51.11,52.15,50.88
09/10/2012,51.21,50.66,51.16,52.17,50.85
09/03/2012,50.69,50.56,51.28,52.18,50.86
08/27/2012,50.41,50.52,51.45,52.23,50.88
08/20/2012,50.41,50.62,51.62,52.33,50.94
08/13/2012,50.27,50.77,51.79,52.38,50.98
08/06/2012,50.11,50.95,52.0,52.41,50.98
07/30/2012,50.42,50.98,52.22,52.46,50.99
07/23/2012,50.62,51.04,52.45,52.52,51.0
07/16/2012,50.84,50.94,52.6,52.57,51.01
07/09/2012,51.27,51.27,52.75,52.65,51.04
07/02/2012,51.78,51.66,52.92,52.7,51.09
06/25/2012,51.54,51.99,52.99,52.67,51.1
06/18/2012,51.45,52.38,53.09,52.67,51.1
06/11/2012,51.05,52.61,53.18,52.5,51.11
06/04/2012,51.27,52.82,53.18,52.35,51.1
05/28/2012,51.54,53.06,53.14,52.23,51.06
05/21/2012,52.44,53.46,53.2,52.18,51.07
05/14/2012,53.3,53.87,53.26,52.13,51.07
05/07/2012,54.17,54.26,53.38,52.09,51.06
04/30/2012,54.36,54.24,53.34,51.93,50.97
04/23/2012,54.57,54.19,53.22,51.67,50.87
04/16/2012,54.47,53.99,53.01,51.33,50.76
04/09/2012,54.44,53.81,52.82,51.04,50.64
04/02/2012,54.34,53.75,52.44,50.88,50.57
03/26/2012,54.11,53.54,52.12,50.67,50.49
03/19/2012,53.8,53.22,51.81,50.45,50.38
03/12/2012,53.51,52.94,51.54,50.25,50.28
03/05/2012,53.17,52.65,51.26,49.98,50.16
02/27/2012,53.16,52.51,51.0,49.79,50.08
02/20/2012,52.97,52.45,50.78,49.61,49.98
02/13/2012,52.64,52.25,50.41,49.54,49.89
02/06/2012,52.37,52.04,50.0,49.54,49.81
01/30/2012,52.13,51.83,49.66,49.53,49.71
01/23/2012,51.87,51.13,49.45,49.56,49.6
01/16/2012,51.93,50.7,49.24,49.59,49.53
01/09/2012,51.85,50.41,49.06,49.56,49.45
01/02/2012,51.7,50.14,48.91,49.52,49.35
12/26/2011,51.52,49.86,48.65,49.47,49.25
12/19/2011,50.39,49.5,48.43,49.44,49.15
12/12/2011,49.48,49.1,48.19,49.43,49.03
12/05/2011,48.96,48.58,48.18,49.47,48.92
11/28/2011,48.57,47.97,48.3,49.53,48.86
11/21/2011,48.21,47.49,48.38,49.54,48.78
11/14/2011,48.6,47.77,48.77,49.73,48.76
11/07/2011,48.72,47.77,49.03,49.85,48.71
10/31/2011,48.19,47.71,49.13,49.9,48.65
10/24/2011,47.38,47.68,49.22,49.95,48.57
10/17/2011,46.78,47.44,49.28,50.01,48.49
10/10/2011,46.93,47.37,49.41,50.02,48.38
10/03/2011,46.82,47.28,49.59,50.0,48.27
09/26/2011,47.22,47.79,49.92,50.08,48.2
09/19/2011,47.99,48.62,50.3,50.19,48.18
09/12/2011,48.09,49.28,50.56,50.25,48.13
09/05/2011,47.81,49.77,50.72,50.26,48.02
08/29/2011,47.74,50.29,50.88,50.3,47.89
08/22/2011,48.35,50.55,51.0,50.32,47.74
08/15/2011,49.26,50.75,51.09,50.3,47.57
08/08/2011,50.46,51.12,51.29,50.35,47.43
08/01/2011,51.74,51.46,51.35,50.37,47.31
07/25/2011,52.84,51.91,51.37,50.36,47.17
07/18/2011,52.75,52.05,51.22,50.24,46.96
07/11/2011,52.24,51.98,50.97,50.07,46.74
07/04/2011,51.79,51.84,50.73,49.88,46.51
06/27/2011,51.18,51.67,50.5,49.64,46.28
06/20/2011,50.97,51.48,50.31,49.48,46.07
06/13/2011,51.36,51.44,50.21,49.34,45.94
06/06/2011,51.72,51.43,50.08,49.17,45.82
05/30/2011,51.89,51.47,49.96,49.03,45.7
05/23/2011,52.15,51.25,49.82,48.87,45.53
05/16/2011,51.98,50.83,49.58,48.62,45.31
05/09/2011,51.52,50.39,49.33,48.37,45.09
05/02/2011,51.13,49.95,49.11,48.19,44.88
04/25/2011,51.04,49.63,48.9,48.03,44.7
04/18/2011,50.34,49.33,48.63,47.79,44.5
04/11/2011,49.67,49.14,48.48,47.57,44.29
04/04/2011,49.25,48.98,48.28,47.41,44.08
03/28/2011,48.77,48.73,48.04,47.19,43.88
03/21/2011,48.22,48.45,47.81,46.96,43.62
03/14/2011,48.32,48.4,47.68,46.73,43.39
03/07/2011,48.62,48.34,47.52,46.53,43.19
02/28/2011,48.71,48.28,47.37,46.32,42.99
02/21/2011,48.68,48.27,47.31,46.18,42.81
02/14/2011,48.68,48.18,47.23,46.02,42.6
02/07/2011,48.47,47.94,47.02,45.79,42.38
01/31/2011,48.05,47.81,46.79,45.47,42.16
01/24/2011,47.85,47.59,46.62,45.16,41.96
01/17/2011,47.86,47.36,46.43,44.83,41.77
01/10/2011,47.68,47.16,46.22,44.52,41.57
01/03/2011,47.4,46.96,45.9,44.26,41.37
12/27/2010,47.57,46.71,45.63,43.98,41.18
12/20/2010,47.32,46.46,45.35,43.68,40.97
12/13/2010,46.86,46.34,45.14,43.41,40.77
12/06/2010,46.64,46.28,44.94,43.13,40.6
11/29/2010,46.52,46.1,44.72,42.92,40.44
11/22/2010,45.85,45.76,44.3,42.66,40.27
11/15/2010,45.59,45.65,43.95,42.55,40.1
11/08/2010,45.82,45.5,43.57,42.47,39.94
11/01/2010,45.91,45.28,43.2,42.37,39.79
10/25/2010,45.68,44.84,42.91,42.18,39.6
10/18/2010,45.67,44.56,42.62,42.01,39.43
10/11/2010,45.72,44.24,42.29,41.81,39.26
10/04/2010,45.17,43.94,41.95,41.58,39.07
09/27/2010,44.65,43.6,41.56,41.37,38.89
09/20/2010,43.99,43.34,41.34,41.21,38.72
09/13/2010,43.44,42.84,41.11,41.0,38.56
09/06/2010,42.76,42.24,41.0,40.76,38.4
08/30/2010,42.71,41.64,40.96,40.56,38.26
08/23/2010,42.55,41.13,40.91,40.27,38.07
08/16/2010,42.69,40.98,40.86,40.05,37.93
08/09/2010,42.24,40.69,40.73,39.85,37.79
08/02/2010,41.72,40.35,40.59,39.66,37.64
07/26/2010,40.57,39.96,40.4,39.43,37.47
07/19/2010,39.71,39.52,40.26,39.19,37.3
07/12/2010,39.27,39.33,40.14,38.98,37.1
07/05/2010,39.13,39.38,40.08,38.85,36.95
06/28/2010,38.98,39.76,40.02,38.76,36.81
06/21/2010,39.34,40.29,40.02,38.71,36.7
06/14/2010,39.34,40.7,39.84,38.61,36.56
06/07/2010,39.39,40.74,39.59,38.47,36.39
05/31/2010,39.64,40.77,39.43,38.37,36.23
05/24/2010,40.55,40.84,39.32,38.27,36.15
05/17/2010,41.23,40.83,39.17,38.12,36.03
05/10/2010,42.06,41.0,39.02,38.06,35.92
05/03/2010,42.08,40.96,38.8,37.95,35.73
04/26/2010,41.91,40.78,38.58,37.87,35.52
04/19/2010,41.13,40.28,38.25,37.64,35.23
04/12/2010,40.44,39.76,37.92,37.41,34.97
04/05/2010,39.95,38.98,37.57,37.21,34.72
03/29/2010,39.84,38.44,37.34,37.02,34.52
03/22/2010,39.64,38.09,37.17,36.85,34.38
03/15/2010,39.44,37.81,36.98,36.71,34.24
03/08/2010,39.09,37.5,36.76,36.57,34.07
03/01/2010,38.01,37.04,36.59,36.4,33.91
02/22/2010,37.04,36.64,36.44,36.23,33.78
02/15/2010,36.55,36.38,36.42,36.11,33.73
02/08/2010,36.17,36.23,36.32,36.04,33.66
02/01/2010,35.92,36.07,36.23,35.95,33.58
01/25/2010,36.06,36.16,36.32,35.87,33.53
01/18/2010,36.24,36.25,36.32,35.81,33.48
01/11/2010,36.21,36.24,36.23,35.72,33.44
01/04/2010,36.28,36.16,36.16,35.61,33.32
12/28/2009,36.23,36.02,36.1,35.52,33.2
12/21/2009,36.26,36.14,36.08,35.41,33.13
12/14/2009,36.26,36.25,36.03,35.23,33.03
12/07/2009,36.27,36.45,35.98,35.05,32.89
11/30/2009,36.04,36.41,35.95,34.86,32.81
11/23/2009,35.8,36.39,35.89,34.68,32.76
11/16/2009,36.01,36.47,35.73,34.51,32.77
11/09/2009,36.24,36.39,35.59,34.31,32.83
11/02/2009,36.64,36.22,35.46,34.1,32.92
10/26/2009,36.77,36.15,35.33,34.03,33.0
10/19/2009,36.99,36.18,35.27,33.95,33.08
10/12/2009,36.93,36.03,35.04,33.79,33.13
10/05/2009,36.53,35.81,34.72,33.52,33.18
09/28/2009,35.8,35.51,34.35,33.17,33.22
09/21/2009,35.53,35.5,34.08,32.82,33.28
09/14/2009,35.38,35.38,33.83,32.54,33.32
09/07/2009,35.13,34.98,33.53,32.23,33.33
08/31/2009,35.09,34.8,33.27,32.02,33.38
08/24/2009,35.22,34.7,33.04,31.9,33.49
08/17/2009,35.48,34.52,32.97,31.77,33.6
08/10/2009,35.38,34.35,32.83,31.58,33.71
08/03/2009,34.83,34.05,32.67,31.42,33.82
07/27/2009,34.5,33.62,32.37,31.32,33.96
07/20/2009,34.18,33.2,32.0,31.35,34.12
07/13/2009,33.55,32.66,31.47,31.27,34.26
07/06/2009,33.33,32.28,31.12,31.21,34.41
06/29/2009,33.28,32.08,30.85,31.2,34.61
06/22/2009,32.75,31.74,30.63,31.15,34.78
06/15/2009,32.21,31.37,30.5,31.15,34.96
06/08/2009,31.76,31.43,30.4,31.03,35.16
06/01/2009,31.23,31.31,30.2,30.89,35.33
05/25/2009,30.88,31.28,30.1,30.86,35.45
05/18/2009,30.73,31.13,30.17,30.84,35.61
05/11/2009,30.53,30.8,30.43,30.72,35.74
05/04/2009,31.1,30.29,30.58,30.77,35.86
04/27/2009,31.4,29.96,30.68,30.85,35.93
04/20/2009,31.68,29.62,30.76,31.04,36.01
04/13/2009,31.52,29.51,30.85,31.36,36.13
04/06/2009,31.07,29.63,31.04,31.75,36.28
03/30/2009,29.48,29.37,30.83,31.97,36.38
03/23/2009,28.52,29.08,30.68,32.2,36.43
03/16/2009,27.57,28.92,30.65,32.48,36.53
03/09/2009,27.51,29.22,30.69,32.83,36.65
03/02/2009,28.19,30.06,30.68,33.27,36.78
02/23/2009,29.25,30.86,31.02,33.74,36.98
02/16/2009,29.64,31.4,31.29,34.1,37.19
02/09/2009,30.26,31.89,31.75,34.44,37.43
02/02/2009,30.93,32.19,32.28,34.73,37.65
01/26/2009,31.93,32.45,32.8,35.09,37.83
01/19/2009,32.48,32.29,33.28,35.43,38.04
01/12/2009,33.16,32.28,33.76,35.84,38.24
01/05/2009,33.52,32.39,34.26,36.23,38.44
12/29/2008,33.44,32.17,34.64,36.59,38.59
12/22/2008,32.97,31.3,34.87,36.89,38.68
12/15/2008,32.1,31.17,35.18,37.26,38.84
12/08/2008,31.39,31.18,35.44,37.61,39.02
12/01/2008,31.26,31.6,35.71,38.03,39.17
11/24/2008,30.89,32.37,36.01,38.41,39.29
11/17/2008,29.64,33.16,36.41,38.77,39.4
11/10/2008,30.24,34.27,37.0,39.29,39.54
11/03/2008,30.97,35.25,37.63,39.77,39.66
10/27/2008,31.95,36.13,38.15,40.04,39.7
10/20/2008,33.84,37.11,38.8,40.39,39.76
10/13/2008,36.68,38.44,39.68,40.77,39.91
10/06/2008,38.29,39.19,40.31,40.95,39.99
09/29/2008,39.54,39.71,40.83,41.01,40.06
09/22/2008,40.31,39.82,41.24,40.99,40.09
09/15/2008,40.38,39.65,41.44,40.91,40.03
09/08/2008,40.2,39.65,41.57,40.82,39.93
09/01/2008,40.09,39.74,41.8,40.78,39.9
08/25/2008,39.88,40.0,42.03,40.67,39.86
08/18/2008,39.32,40.18,42.0,40.59,39.81
08/11/2008,38.92,40.49,42.02,40.46,39.73
08/04/2008,39.1,40.92,41.93,40.28,39.66
07/28/2008,39.39,41.42,41.83,40.23,39.63
07/21/2008,40.12,41.94,41.66,40.28,39.6
07/14/2008,41.03,42.66,41.57,40.42,39.6
07/07/2008,42.07,43.22,41.54,40.56,39.59
06/30/2008,42.74,43.49,41.41,40.57,39.51
06/23/2008,43.45,43.87,41.3,40.65,39.45
06/16/2008,43.77,44.06,41.0,40.65,39.36
06/09/2008,44.28,43.83,40.79,40.64,39.29
06/02/2008,44.38,43.56,40.45,40.58,39.2
05/26/2008,44.24,42.94,39.97,40.48,39.03
05/19/2008,44.29,42.23,39.63,40.42,38.86
05/12/2008,44.35,41.38,39.45,40.43,38.68
05/05/2008,43.37,40.49,39.3,40.31,38.51
04/28/2008,42.74,39.86,39.24,40.17,38.33
04/21/2008,41.63,39.33,39.12,40.03,38.15
04/14/2008,40.18,38.73,39.04,39.8,37.94
04/07/2008,38.41,37.94,38.94,39.54,37.76
03/31/2008,37.6,37.76,39.05,39.35,37.64
03/24/2008,36.98,37.34,39.09,39.14,37.52
03/17/2008,37.03,37.0,39.25,39.06,37.39
03/10/2008,37.28,37.03,39.51,39.03,37.27
03/03/2008,37.47,37.53,39.96,39.1,37.18
02/25/2008,37.92,38.12,40.22,39.2,37.09
02/18/2008,37.7,38.61,40.32,39.16,36.95
02/11/2008,36.96,38.91,40.38,39.05,36.8
02/04/2008,36.78,39.36,40.33,39.01,36.63
01/28/2008,37.59,39.94,40.34,39.06,36.53
01/21/2008,38.31,40.34,40.14,39.03,36.39
01/14/2008,39.52,40.84,40.04,39.0,36.29
01/07/2008,40.85,41.5,40.1,39.03,36.21
12/31/2007,41.94,41.99,40.03,39.03,36.08
12/24/2007,42.3,42.39,39.89,38.91,35.88
12/17/2007,42.36,42.32,39.74,38.79,35.65
12/10/2007,42.16,42.04,39.43,38.61,35.4
12/03/2007,42.14,41.86,39.12,38.45,35.18
11/26/2007,42.05,41.3,38.84,38.24,34.91
11/19/2007,42.48,40.74,38.63,38.08,34.64
11/12/2007,42.28,39.95,38.38,37.95,34.37
11/05/2007,41.91,39.23,38.09,37.82,34.09
10/29/2007,41.57,38.7,37.79,37.59,33.81
10/22/2007,40.56,38.06,37.54,37.3,33.51
10/15/2007,39.0,37.38,37.17,36.93,33.2
10/08/2007,37.62,37.17,37.02,36.71,32.94
10/01/2007,36.55,36.83,36.9,36.48,32.71
09/24/2007,35.83,36.37,36.74,36.26,32.47
09/17/2007,35.57,36.38,36.71,36.09,32.27
09/10/2007,35.76,36.51,36.75,35.99,32.09
09/03/2007,36.71,36.81,36.94,35.94,31.93
08/27/2007,37.11,36.94,37.11,35.9,31.76
08/20/2007,36.92,36.89,37.03,35.71,31.56
08/13/2007,37.19,37.02,36.91,35.51,31.37
08/06/2007,37.25,36.96,36.71,35.27,31.16
07/30/2007,36.9,36.88,36.48,34.98,30.94
07/23/2007,36.78,36.97,36.31,34.74,30.77
07/16/2007,36.86,37.12,36.2,34.55,30.61
07/09/2007,36.86,37.04,35.95,34.25,30.41
07/02/2007,36.67,37.0,35.72,33.99,30.22
06/25/2007,36.86,37.08,35.5,33.75,30.04
06/18/2007,37.17,37.28,35.37,33.57,29.9
06/11/2007,37.37,37.17,35.12,33.39,29.74
06/04/2007,37.23,36.81,34.75,33.13,29.54
05/28/2007,37.33,36.46,34.42,32.85,29.36
05/21/2007,37.3,36.08,34.03,32.51,29.18
05/14/2007,37.4,35.65,33.63,32.2,29.02
05/07/2007,36.97,35.29,33.26,31.9,28.86
04/30/2007,36.39,34.86,32.86,31.58,28.7
04/23/2007,35.58,34.45,32.48,31.2,28.52
04/16/2007,34.85,33.92,32.09,30.79,28.34
04/09/2007,33.9,33.47,31.72,30.36,28.16
04/02/2007,33.61,33.08,31.5,30.04,28.03
03/26/2007,33.33,32.7,31.3,29.73,27.94
03/19/2007,33.32,32.39,31.05,29.47,27.84
03/12/2007,32.99,31.98,30.73,29.17,27.73
03/05/2007,33.03,31.61,30.47,28.95,27.64
02/26/2007,32.55,31.24,30.21,28.68,27.54
02/19/2007,32.07,30.86,29.94,28.46,27.43
02/12/2007,31.46,30.51,29.58,28.2,27.31
02/05/2007,30.97,30.25,29.22,27.93,27.21
01/29/2007,30.19,29.97,28.81,27.62,27.1
01/22/2007,29.93,29.92,28.52,27.42,27.04
01/15/2007,29.66,29.89,28.25,27.23,26.99
01/08/2007,29.56,29.71,28.02,27.06,26.93
01/01/2007,29.53,29.48,27.77,26.89,26.87
12/25/2006,29.76,29.33,27.62,26.79,26.83
12/18/2006,29.9,29.18,27.4,26.68,26.77
12/11/2006,30.13,29.01,27.25,26.57,26.71
12/04/2006,29.85,28.65,27.05,26.45,26.62
11/27/2006,29.43,28.19,26.76,26.33,26.55
11/20/2006,28.9,27.64,26.45,26.22,26.46
11/13/2006,28.46,27.13,26.17,26.08,26.37
11/06/2006,27.9,26.6,25.89,25.95,26.27
10/30/2006,27.44,26.32,25.73,25.88,26.2
10/23/2006,26.94,26.06,25.6,25.84,26.15
10/16/2006,26.39,25.9,25.52,25.84,26.1
10/09/2006,25.8,25.63,25.43,25.81,26.04
10/02/2006,25.31,25.49,25.35,25.82,25.99
09/25/2006,25.21,25.45,25.35,25.85,25.97
09/18/2006,25.17,25.34,25.4,25.89,25.96
09/11/2006,25.42,25.25,25.51,25.96,25.97
09/04/2006,25.46,25.2,25.56,26.03,25.97
08/28/2006,25.68,25.19,25.62,26.14,25.97
08/21/2006,25.69,25.14,25.65,26.21,25.97
08/14/2006,25.52,25.15,25.73,26.28,25.97
08/07/2006,25.08,25.13,25.81,26.33,25.95
07/31/2006,24.95,25.24,25.91,26.39,25.94
07/24/2006,24.7,25.21,25.98,26.41,25.92
07/17/2006,24.58,25.24,26.04,26.42,25.9
07/10/2006,24.78,25.45,26.16,26.49,25.92
07/03/2006,25.18,25.76,26.31,26.58,25.95
06/26/2006,25.52,25.92,26.44,26.66,25.95
06/19/2006,25.73,26.05,26.62,26.75,25.96
06/12/2006,25.9,26.17,26.74,26.81,25.94
06/05/2006,26.12,26.31,26.85,26.86,25.93
05/29/2006,26.34,26.49,26.93,26.87,25.91
05/22/2006,26.32,26.58,26.97,26.87,25.91
05/15/2006,26.38,26.74,27.01,26.85,25.92
05/08/2006,26.43,26.85,27.01,26.79,25.9
05/01/2006,26.5,26.87,27.02,26.77,25.88
04/24/2006,26.63,26.86,26.98,26.71,25.86
04/17/2006,26.83,26.96,27.03,26.66,25.87
04/10/2006,27.1,27.19,27.09,26.59,25.86
04/03/2006,27.26,27.32,27.13,26.52,25.84
03/27/2006,27.24,27.38,27.13,26.46,25.81
03/20/2006,27.1,27.37,27.07,26.37,25.76
03/13/2006,27.08,27.35,27.01,26.26,25.71
03/06/2006,27.27,27.28,26.91,26.17,25.65
02/27/2006,27.38,27.18,26.76,26.1,25.61
02/20/2006,27.52,27.16,26.72,26.04,25.57
02/13/2006,27.64,27.1,26.63,25.97,25.56
02/06/2006,27.63,27.11,26.52,25.91,25.56
01/30/2006,27.29,27.0,26.3,25.8,25.52
01/23/2006,26.98,26.93,26.13,25.73,25.49
01/16/2006,26.81,26.88,26.0,25.67,25.48
01/09/2006,26.56,26.77,25.87,25.57,25.44
01/02/2006,26.6,26.67,25.72,25.5,25.41
12/26/2005,26.71,26.53,25.61,25.42,25.38
12/19/2005,26.89,26.34,25.55,25.38,25.35
12/12/2005,26.94,26.29,25.48,25.35,25.3
12/05/2005,26.97,26.15,25.41,25.32,25.25
11/28/2005,26.74,25.92,25.31,25.23,25.18
11/21/2005,26.35,25.59,25.19,25.17,25.1
11/14/2005,25.8,25.32,25.13,25.07,25.03
11/07/2005,25.63,25.12,25.06,25.0,24.95
10/31/2005,25.34,24.96,24.98,24.94,24.89
10/24/2005,25.1,24.77,24.92,24.95,24.84
10/17/2005,24.84,24.69,24.87,24.98,24.8
10/10/2005,24.84,24.76,24.89,25.01,24.77
10/03/2005,24.61,24.67,24.87,24.99,24.71
09/26/2005,24.59,24.66,24.9,25.02,24.64
09/19/2005,24.44,24.69,24.89,25.07,24.57
09/12/2005,24.54,24.8,24.96,25.13,24.52
09/05/2005,24.69,24.93,24.95,25.16,24.47
08/29/2005,24.73,25.0,24.94,25.16,24.41
08/22/2005,24.73,24.99,24.92,25.16,24.34
08/15/2005,24.95,25.07,25.04,25.15,24.3
08/08/2005,25.06,25.06,25.13,25.14,24.25
08/01/2005,25.17,25.02,25.13,25.12,24.19
07/25/2005,25.27,25.08,25.16,25.11,24.11
07/18/2005,25.24,25.13,25.2,25.16,24.04
07/11/2005,25.19,25.08,25.26,25.21,23.96
07/04/2005,25.07,25.12,25.3,25.25,23.87
06/27/2005,24.87,24.97,25.27,25.26,23.76
06/20/2005,24.89,24.89,25.23,25.29,23.66
06/13/2005,25.03,24.86,25.25,25.31,23.58
06/06/2005,24.98,25.01,25.19,25.31,23.5
05/30/2005,25.18,25.2,25.18,25.33,23.43
05/23/2005,25.06,25.23,25.17,25.33,23.35
05/16/2005,24.88,25.23,25.12,25.26,23.25
05/09/2005,24.69,25.26,25.17,25.18,23.14
05/02/2005,25.03,25.44,25.28,25.12,23.05
04/25/2005,25.23,25.48,25.32,25.02,22.94
04/18/2005,25.4,25.57,25.41,24.98,22.88
04/11/2005,25.58,25.58,25.49,24.9,22.8
04/04/2005,25.84,25.64,25.54,24.85,22.73
03/28/2005,25.84,25.38,25.46,24.73,22.63
03/21/2005,25.73,25.16,25.39,24.61,22.52
03/14/2005,25.74,25.12,25.38,24.54,22.44
03/07/2005,25.59,25.01,25.28,24.42,22.34
02/28/2005,25.45,25.07,25.14,24.26,22.24
02/21/2005,24.92,25.12,24.97,24.07,22.14
02/14/2005,24.59,25.15,24.79,23.91,22.03
02/07/2005,24.5,25.25,24.69,23.78,21.93
01/31/2005,24.43,25.39,24.57,23.66,21.84
01/24/2005,24.69,25.44,24.45,23.53,21.73
01/17/2005,25.32,25.55,24.4,23.45,21.64
01/10/2005,25.71,25.62,24.34,23.35,21.52
01/03/2005,26.0,25.65,24.25,23.26,21.41
12/27/2004,26.35,25.54,24.13,23.12,21.3
12/20/2004,26.18,25.21,23.86,22.92,21.16
12/13/2004,25.77,24.81,23.54,22.7,21.01
12/06/2004,25.52,24.44,23.28,22.48,20.88
11/29/2004,25.3,24.13,23.05,22.26,20.76
11/22/2004,24.74,23.74,22.79,22.04,20.64
11/15/2004,24.23,23.46,22.57,21.84,20.54
11/08/2004,23.86,23.26,22.41,21.7,20.42
11/01/2004,23.36,23.06,22.22,21.53,20.32
10/25/2004,22.95,22.85,22.06,21.36,20.23
10/18/2004,22.74,22.72,21.91,21.23,20.16
10/11/2004,22.7,22.52,21.78,21.09,20.1
10/04/2004,22.67,22.26,21.64,20.97,20.04
09/27/2004,22.76,22.13,21.5,20.86,19.98
09/20/2004,22.74,21.97,21.32,20.77,19.9
09/13/2004,22.7,21.85,21.18,20.7,19.84
09/06/2004,22.34,21.68,21.03,20.61,19.77
08/30/2004,21.86,21.55,20.91,20.52,19.7
08/23/2004,21.5,21.39,20.77,20.43,19.62
08/16/2004,21.2,21.27,20.62,20.34,19.54
08/09/2004,21.0,21.09,20.49,20.26,19.46
08/02/2004,21.02,21.04,20.38,20.22,19.41
07/26/2004,21.24,21.02,20.32,20.21,19.36
07/19/2004,21.28,20.87,20.22,20.15,19.31
07/12/2004,21.34,20.67,20.17,20.08,19.25
07/05/2004,21.19,20.52,20.12,20.02,19.18
06/28/2004,21.05,20.38,20.08,19.93,19.12
06/21/2004,20.81,20.28,20.01,19.82,19.05
06/14/2004,20.46,20.15,19.94,19.69,18.98
06/07/2004,20.0,19.97,19.87,19.56,18.89
05/31/2004,19.85,19.89,19.84,19.48,18.81
05/24/2004,19.7,19.73,19.82,19.41,18.73
05/17/2004,19.75,19.61,19.8,19.33,18.66
05/10/2004,19.84,19.57,19.78,19.27,18.6
05/03/2004,19.94,19.67,19.79,19.25,18.55
04/26/2004,19.93,19.73,19.76,19.25,18.48
04/19/2004,19.76,19.78,19.7,19.24,18.41
04/12/2004,19.48,19.74,19.59,19.15,18.31
04/05/2004,19.3,19.74,19.46,19.11,18.23
03/29/2004,19.4,19.77,19.35,19.1,18.15
03/22/2004,19.53,19.8,19.28,19.09,18.05
03/15/2004,19.8,19.91,19.25,19.11,17.97
03/08/2004,20.01,19.99,19.18,19.11,17.9
03/01/2004,20.18,20.0,19.13,19.1,17.83
02/23/2004,20.14,19.91,19.05,19.04,17.75
02/16/2004,20.07,19.8,19.01,18.98,17.67
02/09/2004,20.01,19.62,18.98,18.93,17.59
02/02/2004,19.96,19.44,18.86,18.87,17.52
01/26/2004,19.82,19.18,18.8,18.81,17.44
01/19/2004,19.69,18.93,18.77,18.75,17.37
01/12/2004,19.53,18.75,18.73,18.67,17.29
01/05/2004,19.24,18.59,18.72,18.59,17.2
12/29/2003,18.92,18.38,18.67,18.51,17.1
12/22/2003,18.55,18.26,18.65,18.47,17.02
12/15/2003,18.18,18.18,18.6,18.41,16.93
12/08/2003,17.98,18.22,18.57,18.34,16.84
12/01/2003,17.95,18.33,18.59,18.31,16.75
11/24/2003,17.85,18.27,18.58,18.29,16.67
11/17/2003,17.96,18.41,18.62,18.27,16.59
11/10/2003,18.19,18.6,18.66,18.23,16.52
11/03/2003,18.46,18.71,18.63,18.15,16.46
10/27/2003,18.71,18.84,18.59,18.05,16.41
10/20/2003,18.7,18.95,18.58,17.99,16.37
10/13/2003,18.86,19.05,18.58,17.93,16.34
10/06/2003,19.02,19.02,18.52,17.86,16.29
09/29/2003,18.96,18.93,18.41,17.71,16.22
09/22/2003,18.98,18.84,18.3,17.57,16.16
09/15/2003,19.2,18.89,18.29,17.48,16.1
09/08/2003,19.24,18.83,18.2,17.35,16.02
09/01/2003,19.02,18.71,18.04,17.19,15.93
08/25/2003,18.9,18.54,17.86,17.01,15.86
08/18/2003,18.71,18.34,17.66,16.83,15.78
08/11/2003,18.59,18.21,17.51,16.69,15.72
08/04/2003,18.43,18.1,17.37,16.56,15.7
07/28/2003,18.4,18.02,17.27,16.45,15.67
07/21/2003,18.19,17.88,17.1,16.35,15.67
07/14/2003,17.98,17.76,16.93,16.24,15.67
07/07/2003,17.84,17.69,16.77,16.18,15.67
06/30/2003,17.78,17.57,16.61,16.08,15.67
06/23/2003,17.64,17.37,16.43,15.99,15.67
06/16/2003,17.57,17.18,16.24,15.91,15.7
06/09/2003,17.54,16.97,16.08,15.8,15.71
06/02/2003,17.54,16.8,15.92,15.69,15.71
05/26/2003,17.37,16.63,15.78,15.57,15.72
05/19/2003,17.11,16.53,15.67,15.45,15.73
05/12/2003,16.8,16.32,15.59,15.34,15.73
05/05/2003,16.41,16.1,15.49,15.2,15.72
04/28/2003,16.06,15.85,15.43,15.05,15.71
04/21/2003,15.89,15.65,15.33,14.91,15.71
04/14/2003,15.95,15.49,15.3,14.82,15.73
04/07/2003,15.85,15.29,15.27,14.78,15.75
03/31/2003,15.8,15.18,15.22,14.77,15.78
03/24/2003,15.64,15.04,15.14,14.75,15.79
03/17/2003,15.41,14.94,15.03,14.75,15.78
03/10/2003,15.04,14.82,14.91,14.72,15.76
03/03/2003,14.73,14.85,14.85,14.74,15.76
02/24/2003,14.57,14.87,14.74,14.74,15.76
02/17/2003,14.45,15.0,14.64,14.73,15.8
02/10/2003,14.47,15.02,14.54,14.7,15.83
02/03/2003,14.59,15.11,14.48,14.67,15.87
01/27/2003,14.97,15.24,14.53,14.71,15.91
01/20/2003,15.17,15.25,14.57,14.74,15.96
01/13/2003,15.56,15.23,14.61,14.76,15.99
01/06/2003,15.57,15.13,14.66,14.84,16.01
12/30/2002,15.63,15.0,14.68,14.9,16.03
12/23/2002,15.52,14.85,14.68,14.99,16.03
12/16/2002,15.34,14.62,14.68,15.1,16.03
12/09/2002,14.91,14.28,14.59,15.15,16.0
12/02/2002,14.69,14.06,14.54,15.27,15.99
11/25/2002,14.38,13.85,14.45,15.36,16.01
11/18/2002,14.18,13.82,14.44,15.48,16.04
11/11/2002,13.91,13.89,14.48,15.61,16.06
11/04/2002,13.66,13.99,14.53,15.73,16.07
10/28/2002,13.43,14.18,14.7,15.88,16.13
10/21/2002,13.32,14.35,14.84,16.01,16.19
10/14/2002,13.45,14.51,15.06,16.13,16.25
10/07/2002,13.87,14.74,15.34,16.25,16.33
09/30/2002,14.31,14.9,15.59,16.38,16.41
09/23/2002,14.94,15.01,15.87,16.52,16.47
09/16/2002,15.38,15.06,16.11,16.65,16.53
09/09/2002,15.58,15.07,16.32,16.72,16.56
09/02/2002,15.61,15.07,16.47,16.78,16.58
08/26/2002,15.48,15.07,16.6,16.82,16.59
08/19/2002,15.09,15.21,16.73,16.82,16.58
08/12/2002,14.74,15.33,16.84,16.8,16.59
08/05/2002,14.56,15.61,16.94,16.78,16.61
07/29/2002,14.53,15.94,17.0,16.78,16.64
07/22/2002,14.66,16.28,17.11,16.86,16.68
07/15/2002,15.33,16.73,17.27,16.96,16.73
07/08/2002,15.93,17.16,17.44,17.07,16.78
07/01/2002,16.67,17.57,17.55,17.12,16.83
06/24/2002,17.36,17.87,17.63,17.18,16.87
06/17/2002,17.89,18.12,17.69,17.21,16.89
06/10/2002,18.12,18.26,17.62,17.18,16.86
06/03/2002,18.4,18.34,17.54,17.16,16.84
05/27/2002,18.48,18.26,17.37,17.06,16.79
05/20/2002,18.38,18.06,17.19,16.95,16.74
05/13/2002,18.36,17.95,17.16,16.85,16.69
05/06/2002,18.4,17.82,17.08,16.71,16.63
04/29/2002,18.29,17.71,17.02,16.67,16.56
04/22/2002,18.04,17.53,16.89,16.59,16.51
04/15/2002,17.74,17.4,16.83,16.51,16.45
04/08/2002,17.54,17.26,16.76,16.41,16.39
04/01/2002,17.24,16.98,16.64,16.37,16.32
03/25/2002,17.14,16.73,16.56,16.37,16.26
03/18/2002,17.02,16.47,16.46,16.38,16.21
03/11/2002,17.06,16.33,16.4,16.42,16.17
03/04/2002,16.98,16.37,16.3,16.44,16.12
02/25/2002,16.73,16.34,16.16,16.42,16.08
02/18/2002,16.33,16.33,16.15,16.41,16.02
02/11/2002,15.93,16.26,16.12,16.4,15.98
02/04/2002,15.59,16.27,16.07,16.38,15.94
01/28/2002,15.75,16.25,15.99,16.36,15.89
01/21/2002,15.95,16.3,16.07,16.35,15.83
01/14/2002,16.33,16.39,16.19,16.38,15.79
01/07/2002,16.59,16.45,16.33,16.44,15.75
12/31/2001,16.95,16.46,16.47,16.5,15.7
12/24/2001,16.75,16.23,16.48,16.5,15.59
12/17/2001,16.65,15.98,16.47,16.49,15.48
12/10/2001,16.46,15.97,16.45,16.49,15.37
12/03/2001,16.31,15.97,16.46,16.54,15.26
11/26/2001,15.98,15.86,16.44,16.55,15.17
11/19/2001,15.7,15.73,16.41,16.56,15.09
11/12/2001,15.31,15.83,16.37,16.54,15.01
11/05/2001,15.48,15.98,16.37,16.53,14.93
10/29/2001,15.64,16.22,16.43,16.53,14.88
10/22/2001,15.75,16.47,16.52,16.52,14.83
10/15/2001,15.75,16.73,16.64,16.53,14.77
10/08/2001,16.35,16.95,16.74,16.54,14.73
10/01/2001,16.49,16.93,16.75,16.46,14.64
09/24/2001,16.81,16.95,16.82,16.43,14.58
09/17/2001,17.2,17.01,16.9,16.39,14.53
09/10/2001,17.71,17.09,16.97,16.37,14.48
09/03/2001,17.56,16.91,16.9,16.27,14.39
08/27/2001,17.37,16.76,16.81,16.15,14.33
08/20/2001,17.1,16.64,16.68,16.03,14.28
08/13/2001,16.82,16.56,16.55,15.91,14.2
08/06/2001,16.47,16.54,16.43,15.8,14.14
07/30/2001,16.26,16.53,16.34,15.73,14.1
07/23/2001,16.16,16.58,16.23,15.64,14.05
07/16/2001,16.18,16.69,16.17,15.57,14.0
07/09/2001,16.3,16.78,16.07,15.5,13.95
07/02/2001,16.61,16.86,16.02,15.42,13.91
06/25/2001,16.8,16.88,15.95,15.32,13.88
06/18/2001,17.0,16.86,15.85,15.2,13.84
06/11/2001,17.21,16.72,15.73,15.06,13.8
06/04/2001,17.26,16.54,15.59,14.9,13.73
05/28/2001,17.1,16.32,15.43,14.69,13.64
05/21/2001,16.96,16.14,15.33,14.48,13.58
05/14/2001,16.71,15.88,15.16,14.24,13.51
05/07/2001,16.23,15.64,15.01,13.98,13.43
04/30/2001,15.82,15.37,14.86,13.79,13.35
04/23/2001,15.54,15.18,14.7,13.61,13.26
04/16/2001,15.31,15.01,14.54,13.48,13.2
04/09/2001,15.04,14.84,14.37,13.33,13.13
04/02/2001,15.06,14.75,14.22,13.23,13.07
03/26/2001,14.92,14.65,14.07,13.13,13.0
03/19/2001,14.81,14.53,13.87,13.01,12.94
03/12/2001,14.71,14.53,13.65,12.91,12.88
03/05/2001,14.64,14.45,13.43,12.83,12.85
02/26/2001,14.43,14.38,13.16,12.74,12.81
02/19/2001,14.38,14.34,13.01,12.67,12.79
02/12/2001,14.26,14.23,12.83,12.58,12.75
02/05/2001,14.35,14.07,12.72,12.51,12.73
01/29/2001,14.27,13.9,12.58,12.51,12.73
01/22/2001,14.33,13.7,12.48,12.52,12.71
01/15/2001,14.31,13.5,12.37,12.49,12.7
01/08/2001,14.2,13.2,12.25,12.49,12.69
01/01/2001,13.8,12.77,12.1,12.47,12.68
12/25/2000,13.54,12.4,12.01,12.46,12.67
12/18/2000,13.08,11.93,11.92,12.43,12.66
12/11/2000,12.69,11.67,11.83,12.4,12.64
12/04/2000,12.21,11.44,11.76,12.41,12.63
11/27/2000,11.75,11.36,11.73,12.44,12.64
11/20/2000,11.27,11.25,11.82,12.48,12.64
11/13/2000,10.78,11.25,11.92,12.54,12.65
11/06/2000,10.66,11.24,11.98,12.56,12.63
10/30/2000,10.66,11.3,12.13,12.59,12.66
10/23/2000,10.97,11.43,12.31,12.67,12.71
10/16/2000,11.24,11.62,12.49,12.78,12.76
10/09/2000,11.71,11.91,12.68,12.87,12.8
10/02/2000,11.82,11.98,12.77,12.9,12.83
09/25/2000,11.94,12.08,12.9,12.9,12.87
09/18/2000,11.88,12.1,12.98,12.92,12.9
09/11/2000,12.0,12.38,13.09,12.92,12.95
09/04/2000,12.1,12.6,13.18,12.9,12.99
08/28/2000,12.15,12.73,13.22,12.87,13.04
08/21/2000,12.23,12.96,13.24,12.86,13.08
08/14/2000,12.33,13.2,13.29,12.85,13.14
08/07/2000,12.77,13.36,13.36,12.87,13.17
07/31/2000,13.09,13.45,13.36,12.89,13.21
07/24/2000,13.31,13.55,13.35,12.91,13.25
07/17/2000,13.7,13.71,13.31,12.92,13.27
07/10/2000,14.08,13.86,13.32,12.95,13.3
07/03/2000,13.95,13.79,13.19,12.94,13.3
06/26/2000,13.81,13.77,13.06,12.9,13.31
06/19/2000,13.8,13.72,12.94,12.91,13.3
06/12/2000,13.73,13.52,12.81,12.89,13.3
06/05/2000,13.64,13.39,12.67,12.88,13.29
05/29/2000,13.64,13.36,12.63,12.88,13.3
05/22/2000,13.74,13.27,12.61,12.89,13.28
05/15/2000,13.64,13.15,12.59,12.89,13.27
05/08/2000,13.31,12.91,12.53,12.85,13.26
05/01/2000,13.13,12.79,12.49,12.83,13.26
04/24/2000,13.08,12.59,12.51,12.8,13.28
04/17/2000,12.8,12.34,12.46,12.76,13.27
04/10/2000,12.67,12.16,12.5,12.7,13.28
04/03/2000,12.51,12.11,12.57,12.72,13.29
03/27/2000,12.45,11.95,12.63,12.74,13.28
03/20/2000,12.11,11.89,12.64,12.74,13.28
03/13/2000,11.89,11.95,12.69,12.73,13.3
03/06/2000,11.66,12.02,12.75,12.75,13.32
02/28/2000,11.71,12.14,12.82,12.84,13.35
02/21/2000,11.46,12.2,12.85,12.89,13.37
02/14/2000,11.68,12.44,12.91,12.99,13.41
02/07/2000,12.0,12.57,12.96,13.08,13.45
01/31/2000,12.38,12.84,12.97,13.21,13.5
01/24/2000,12.58,13.03,13.03,13.29,13.54
01/17/2000,12.94,13.31,13.14,13.43,13.59
01/10/2000,13.19,13.39,13.16,13.47,13.61
01/03/2000,13.14,13.44,13.12,13.52,13.62
12/27/1999,13.31,13.48,13.12,13.58,13.63
12/20/1999,13.48,13.49,13.18,13.62,13.65
12/13/1999,13.68,13.5,13.24,13.65,13.66
12/06/1999,13.58,13.39,13.26,13.67,13.68
11/29/1999,13.74,13.35,13.34,13.72,13.65
11/22/1999,13.66,13.1,13.39,13.69,13.59
11/15/1999,13.5,13.02,13.42,13.71,13.55
11/08/1999,13.31,12.96,13.48,13.69,13.52
11/01/1999,13.19,12.93,13.51,13.72,13.53
10/25/1999,12.96,12.79,13.56,13.68,13.52
10/18/1999,12.54,12.76,13.63,13.66,13.53
10/11/1999,12.54,12.88,13.69,13.67,13.55
10/04/1999,12.61,12.98,13.72,13.69,13.59
09/27/1999,12.67,13.14,13.81,13.75,13.62
09/20/1999,12.63,13.33,13.91,13.78,13.66
09/13/1999,12.97,13.67,13.98,13.86,13.73
09/06/1999,13.21,13.81,14.05,13.86,13.79
08/30/1999,13.35,14.01,14.06,13.82,13.84
08/23/1999,13.6,14.1,14.12,13.83,13.88
08/16/1999,14.03,14.34,14.13,13.87,13.94
08/09/1999,14.37,14.51,14.11,13.89,13.97
08/02/1999,14.42,14.5,14.07,13.87,13.98
07/26/1999,14.66,14.47,14.05,13.85,14.0
07/19/1999,14.59,14.49,14.06,13.84,14.02
07/12/1999,14.65,14.5,14.0,13.81,14.05
07/05/1999,14.65,14.3,13.95,13.79,14.07
06/28/1999,14.58,14.29,13.89,13.78,14.1
06/21/1999,14.27,14.11,13.72,13.75,14.11
06/14/1999,14.39,14.14,13.7,13.76,14.13
06/07/1999,14.35,13.92,13.63,13.71,14.13
05/31/1999,13.95,13.72,13.57,13.68,14.12
05/24/1999,14.0,13.64,13.56,13.69,14.15
05/17/1999,13.95,13.64,13.54,13.67,14.17
05/10/1999,13.88,13.63,13.51,13.68,14.18
05/03/1999,13.5,13.51,13.47,13.58,14.19
04/26/1999,13.5,13.6,13.53,13.5,14.23
04/19/1999,13.28,13.48,13.53,13.4,14.25
04/12/1999,13.33,13.34,13.58,13.35,14.26
04/05/1999,13.37,13.26,13.57,13.33,14.26
03/29/1999,13.53,13.35,13.61,13.35,14.28
03/22/1999,13.71,13.43,13.66,13.4,14.29
03/15/1999,13.69,13.48,13.71,13.44,14.29
03/08/1999,13.35,13.44,13.69,13.48,14.27
03/01/1999,13.16,13.39,13.71,13.49,14.23
02/22/1999,13.16,13.43,13.61,13.54,14.21
02/15/1999,13.15,13.46,13.44,13.59,14.21
02/08/1999,13.28,13.58,13.35,13.71,14.22
02/01/1999,13.54,13.82,13.35,13.86,14.24
01/25/1999,13.63,13.87,13.37,13.94,14.25
01/18/1999,13.69,13.88,13.35,14.0,14.27
01/11/1999,13.78,13.89,13.39,14.05,14.28
01/04/1999,13.88,13.94,13.41,14.09,14.29
12/28/1998,14.09,13.94,13.5,14.15,14.29
12/21/1998,14.11,14.03,13.55,14.21,14.28
12/14/1998,14.06,13.8,13.59,14.29,14.27
12/07/1998,14.0,13.42,13.66,14.35,14.28
11/30/1998,14.0,13.13,13.78,14.42,14.27
11/23/1998,13.78,12.88,13.88,14.46,14.26
11/16/1998,13.96,12.87,13.97,14.51,14.26
11/09/1998,13.53,12.83,14.07,14.54,14.27
11/02/1998,12.85,12.89,14.14,14.57,14.27
10/26/1998,12.26,12.89,14.17,14.61,14.27
10/19/1998,11.99,13.05,14.26,14.67,14.28
10/12/1998,11.78,13.06,14.3,14.67,14.27
10/05/1998,12.13,13.39,14.53,14.81,14.3
09/28/1998,12.93,13.9,14.81,14.97,14.35
09/21/1998,13.52,14.43,15.07,15.1,14.4
09/14/1998,14.12,14.87,15.25,15.18,14.41
09/07/1998,14.34,15.08,15.33,15.2,14.38
08/31/1998,14.65,15.31,15.39,15.21,14.35
08/24/1998,14.87,15.38,15.41,15.19,14.3
08/17/1998,15.35,15.46,15.46,15.15,14.26
08/10/1998,15.61,15.47,15.48,15.06,14.19
08/03/1998,15.82,15.55,15.47,14.97,14.12
07/27/1998,15.96,15.68,15.51,14.88,14.06
07/20/1998,15.89,15.72,15.51,14.83,13.99
07/13/1998,15.57,15.71,15.43,14.73,13.9
07/06/1998,15.33,15.64,15.34,14.63,13.81
06/29/1998,15.28,15.59,15.26,14.56,13.71
06/22/1998,15.39,15.48,15.16,14.53,13.62
06/15/1998,15.54,15.44,15.09,14.5,13.54
06/08/1998,15.85,15.47,14.99,14.48,13.46
06/01/1998,15.96,15.48,14.86,14.42,13.36
05/25/1998,15.89,15.4,14.68,14.34,13.26
05/18/1998,15.57,15.35,14.49,14.26,13.14
05/11/1998,15.34,15.3,14.39,14.2,13.04
05/04/1998,15.08,15.15,14.23,14.11,12.94
04/27/1998,15.0,15.03,14.12,14.06,12.84
04/20/1998,14.91,14.93,14.05,14.01,12.74
04/13/1998,15.14,14.84,14.06,13.99,12.67
04/06/1998,15.25,14.74,14.04,13.98,12.58
03/30/1998,15.23,14.52,13.99,13.94,12.48
03/23/1998,15.06,14.24,13.89,13.9,12.37
03/16/1998,14.95,13.97,13.81,13.87,12.26
03/09/1998,14.54,13.62,13.71,13.79,12.14
03/02/1998,14.23,13.48,13.66,13.73,12.03
02/23/1998,13.82,13.31,13.59,13.69,11.93
02/16/1998,13.43,13.22,13.58,13.64,11.84
02/09/1998,12.99,13.18,13.56,13.56,11.74
02/02/1998,12.7,13.27,13.57,13.48,11.65
01/26/1998,12.72,13.33,13.59,13.41,11.56
01/19/1998,12.81,13.46,13.65,13.36,11.49
01/12/1998,13.01,13.53,13.73,13.32,11.43
01/05/1998,13.37,13.65,13.82,13.27,11.36
12/29/1997,13.84,13.79,13.87,13.23,11.3
12/22/1997,13.94,13.84,13.86,13.15,11.22
12/15/1997,14.12,13.87,13.88,13.08,11.13
12/08/1997,14.06,13.95,13.86,12.99,11.04
12/01/1997,13.93,13.94,13.75,12.86,10.94
11/24/1997,13.74,13.87,13.59,12.72,10.83
11/17/1997,13.74,13.85,13.45,12.58,10.73
11/10/1997,13.63,13.84,13.31,12.44,10.63
11/03/1997,13.83,13.92,13.21,12.31,10.54
10/27/1997,13.94,13.98,13.08,12.17,10.46
10/20/1997,13.99,13.95,12.95,12.03,10.37
10/13/1997,13.97,13.89,12.8,11.88,10.28
10/06/1997,14.06,13.89,12.68,11.76,10.2
09/29/1997,14.02,13.77,12.51,11.61,10.12
09/22/1997,14.03,13.57,12.33,11.47,10.03
09/15/1997,13.91,13.31,12.14,11.34,9.94
09/08/1997,13.81,13.05,11.94,11.19,9.84
09/01/1997,13.73,12.78,11.73,11.02,9.74
08/25/1997,13.52,12.5,11.5,10.85,9.65
08/18/1997,13.11,12.18,11.27,10.66,9.56
08/11/1997,12.71,11.94,11.07,10.49,9.46
08/04/1997,12.28,11.72,10.88,10.33,9.37
07/28/1997,11.84,11.47,10.7,10.18,9.31
07/21/1997,11.48,11.26,10.53,10.03,9.26
07/14/1997,11.26,11.09,10.43,9.92,9.24
07/07/1997,11.18,10.97,10.35,9.81,9.22
06/30/1997,11.16,10.83,10.26,9.71,9.18
06/23/1997,11.1,10.68,10.14,9.61,9.15
06/16/1997,11.05,10.51,10.02,9.53,9.13
06/09/1997,10.91,10.35,9.89,9.46,9.1
06/02/1997,10.76,10.2,9.77,9.38,9.08
05/26/1997,10.5,10.03,9.64,9.29,9.06
05/19/1997,10.26,9.92,9.53,9.19,9.06
05/12/1997,9.97,9.79,9.42,9.09,9.05
05/05/1997,9.79,9.77,9.33,9.01,9.03
04/28/1997,9.64,9.74,9.23,8.94,9.02
04/21/1997,9.56,9.69,9.14,8.88,9.01
04/14/1997,9.58,9.59,9.08,8.82,9.0
04/07/1997,9.62,9.53,9.04,8.77,9.0
03/31/1997,9.74,9.43,9.01,8.74,9.0
03/24/1997,9.83,9.33,8.97,8.71,9.0
03/17/1997,9.82,9.24,8.91,8.68,8.99
03/10/1997,9.61,9.13,8.82,8.64,8.98
03/03/1997,9.45,9.05,8.74,8.63,8.96
02/24/1997,9.13,8.9,8.64,8.59,8.95
02/17/1997,8.84,8.73,8.54,8.55,8.93
02/10/1997,8.67,8.6,8.47,8.49,8.93
02/03/1997,8.66,8.57,8.43,8.47,8.93
01/27/1997,8.64,8.55,8.39,8.45,8.94
01/20/1997,8.67,8.58,8.39,8.46,8.95
01/13/1997,8.63,8.6,8.4,8.43,8.96
01/06/1997,8.53,8.58,8.4,8.4,8.96
12/30/1996,8.48,8.51,8.39,8.44,8.96
12/23/1996,8.46,8.43,8.42,8.49,8.96
12/16/1996,8.49,8.38,8.44,8.56,8.97
12/09/1996,8.58,8.35,8.46,8.62,8.97
12/02/1996,8.64,8.34,8.44,8.66,8.97
11/25/1996,8.54,8.28,8.42,8.69,8.97
11/18/1996,8.41,8.23,8.4,8.72,8.95
11/11/1996,8.27,8.21,8.4,8.74,8.95
11/04/1996,8.13,8.21,8.34,8.79,8.94
10/28/1996,8.05,8.23,8.31,8.84,8.94
10/21/1996,8.03,8.28,8.4,8.93,8.94
10/14/1996,8.06,8.4,8.52,9.01,8.94
10/07/1996,8.15,8.5,8.65,9.05,8.95
09/30/1996,8.29,8.56,8.75,9.1,8.95
09/23/1996,8.4,8.54,8.81,9.14,8.95
09/16/1996,8.53,8.56,8.89,9.18,8.95
09/09/1996,8.74,8.58,8.96,9.23,8.95
09/02/1996,8.86,8.59,9.01,9.26,8.94
08/26/1996,8.83,8.47,9.07,9.28,8.92
08/19/1996,8.68,8.4,9.15,9.3,8.91
08/12/1996,8.58,8.52,9.25,9.32,8.9
08/05/1996,8.42,8.65,9.31,9.3,8.88
07/29/1996,8.32,8.81,9.33,9.3,8.86
07/22/1996,8.11,8.94,9.38,9.32,8.85
07/15/1996,8.11,9.09,9.44,9.37,8.84
07/08/1996,8.46,9.22,9.5,9.39,8.84
07/01/1996,8.88,9.35,9.55,9.42,8.82
06/24/1996,9.29,9.44,9.59,9.45,8.81
06/17/1996,9.78,9.68,9.68,9.5,8.81
06/10/1996,10.06,9.9,9.75,9.53,8.8
06/03/1996,9.99,9.98,9.71,9.49,8.76
05/27/1996,9.83,9.97,9.63,9.43,8.71
05/20/1996,9.58,9.85,9.55,9.37,8.65
05/13/1996,9.58,9.81,9.51,9.32,8.6
05/06/1996,9.74,9.79,9.5,9.29,8.56
04/29/1996,9.96,9.77,9.48,9.24,8.52
04/22/1996,10.12,9.75,9.45,9.19,8.48
04/15/1996,10.13,9.74,9.45,9.15,8.43
04/08/1996,10.04,9.68,9.41,9.1,8.39
04/01/1996,9.84,9.59,9.34,9.04,8.33
03/25/1996,9.58,9.45,9.24,8.96,8.27
03/18/1996,9.38,9.29,9.16,8.88,8.2
03/11/1996,9.36,9.24,9.13,8.84,8.15
03/04/1996,9.33,9.21,9.08,8.79,8.11
02/26/1996,9.34,9.22,9.03,8.76,8.06
02/19/1996,9.33,9.18,8.98,8.72,8.02
02/12/1996,9.2,9.15,8.91,8.67,7.98
02/05/1996,9.12,9.16,8.86,8.62,7.95
01/29/1996,9.09,9.14,8.81,8.57,7.9
01/22/1996,9.09,9.08,8.76,8.52,7.85
01/15/1996,9.04,9.03,8.72,8.48,7.8
01/08/1996,9.1,9.03,8.68,8.45,7.77
01/01/1996,9.21,9.03,8.64,8.42,7.74
12/25/1995,9.19,8.95,8.59,8.38,7.7
12/18/1995,9.07,8.85,8.53,8.32,7.66
12/11/1995,9.03,8.78,8.49,8.28,7.62
12/04/1995,8.96,8.66,8.43,8.23,7.58
11/27/1995,8.84,8.55,8.35,8.17,7.54
11/20/1995,8.72,8.48,8.29,8.12,7.5
11/13/1995,8.64,8.45,8.25,8.08,7.47
11/06/1995,8.53,8.41,8.21,8.03,7.43
10/30/1995,8.37,8.33,8.17,7.98,7.39
10/23/1995,8.26,8.26,8.12,7.92,7.34
10/16/1995,8.24,8.22,8.09,7.88,7.3
10/09/1995,8.26,8.2,8.06,7.84,7.25
10/02/1995,8.28,8.19,8.03,7.8,7.21
09/25/1995,8.29,8.2,8.01,7.76,7.17
09/18/1995,8.26,8.15,7.98,7.72,7.14
09/11/1995,8.2,8.09,7.94,7.68,7.1
09/04/1995,8.14,8.04,7.89,7.62,7.06
08/28/1995,8.11,8.01,7.84,7.57,7.02
08/21/1995,8.11,8.0,7.81,7.52,6.98
08/14/1995,8.05,7.98,7.75,7.47,6.94
08/07/1995,7.99,7.96,7.71,7.42,6.9
07/31/1995,7.94,7.91,7.66,7.36,6.87
07/24/1995,7.92,7.87,7.6,7.32,6.84
07/17/1995,7.89,7.83,7.54,7.29,6.81
07/10/1995,7.91,7.8,7.5,7.27,6.78
07/03/1995,7.94,7.79,7.47,7.23,6.75
06/26/1995,7.88,7.73,7.41,7.18,6.71
06/19/1995,7.81,7.67,7.34,7.12,6.67
06/12/1995,7.76,7.62,7.27,7.08,6.63
06/05/1995,7.69,7.53,7.21,7.05,6.59
05/29/1995,7.64,7.45,7.15,7.02,6.55
05/22/1995,7.58,7.41,7.08,6.99,6.52
05/15/1995,7.53,7.33,7.04,6.96,6.48
05/08/1995,7.49,7.26,7.02,6.94,6.44
05/01/1995,7.36,7.2,7.0,6.91,6.41
04/24/1995,7.26,7.14,6.95,6.88,6.38
04/17/1995,7.23,7.09,6.9,6.86,6.35
04/10/1995,7.14,7.02,6.85,6.82,6.31
04/03/1995,7.04,6.93,6.82,6.79,6.28
03/27/1995,7.03,6.9,6.81,6.76,6.25
03/20/1995,7.03,6.84,6.8,6.72,6.22
03/13/1995,6.96,6.76,6.78,6.66,6.19
03/06/1995,6.89,6.75,6.78,6.62,6.15
02/27/1995,6.81,6.78,6.77,6.58,6.13
02/20/1995,6.76,6.81,6.77,6.55,6.09
02/13/1995,6.66,6.76,6.75,6.52,6.06
02/06/1995,6.57,6.7,6.74,6.49,6.03
01/30/1995,6.6,6.68,6.72,6.46,6.01
01/23/1995,6.75,6.71,6.72,6.45,5.99
01/16/1995,6.86,6.73,6.69,6.41,5.96
01/09/1995,6.87,6.76,6.65,6.39,5.94
01/02/1995,6.83,6.8,6.61,6.38,5.92
12/26/1994,6.75,6.81,6.55,6.36,5.9
12/19/1994,6.66,6.77,6.49,6.33,5.86
12/12/1994,6.6,6.73,6.43,6.29,5.83
12/05/1994,6.65,6.74,6.4,6.26,5.81
11/28/1994,6.78,6.79,6.39,6.24,5.79
11/21/1994,6.87,6.77,6.36,6.22,5.78
11/14/1994,6.87,6.73,6.32,6.18,5.75
11/07/1994,6.86,6.64,6.26,6.13,5.72
10/31/1994,6.83,6.55,6.2,6.08,5.68
10/24/1994,6.8,6.42,6.16,6.04,5.65
10/17/1994,6.68,6.29,6.13,5.99,5.61
10/10/1994,6.59,6.21,6.11,5.95,5.58
10/03/1994,6.43,6.12,6.07,5.91,5.54
09/26/1994,6.26,6.05,6.03,5.88,5.51
09/19/1994,6.04,5.99,5.97,5.84,5.47
09/12/1994,5.91,5.95,5.95,5.81,5.45
09/05/1994,5.83,5.9,5.91,5.78,5.42
08/29/1994,5.81,5.87,5.88,5.75,5.39
08/22/1994,5.84,5.86,5.85,5.73,5.37
08/15/1994,5.94,5.91,5.85,5.71,5.36
08/08/1994,5.99,5.97,5.84,5.69,5.34
08/01/1994,5.98,6.02,5.83,5.67,5.31
07/25/1994,5.93,6.03,5.81,5.64,5.29
07/18/1994,5.87,6.0,5.79,5.61,5.26
07/11/1994,5.88,5.96,5.76,5.58,5.23
07/04/1994,5.94,5.94,5.73,5.55,5.21
06/27/1994,6.05,5.92,5.71,5.53,5.19
06/20/1994,6.13,5.88,5.7,5.51,0.0
06/13/1994,6.13,5.85,5.67,5.5,0.0
06/06/1994,6.04,5.8,5.61,5.47,0.0
05/30/1994,5.94,5.72,5.56,5.44,0.0
05/23/1994,5.78,5.64,5.49,5.4,0.0
05/16/1994,5.64,5.6,5.44,5.37,0.0
05/09/1994,5.57,5.57,5.41,5.35,0.0
05/02/1994,5.56,5.56,5.38,5.34,0.0
04/25/1994,5.49,5.53,5.35,5.33,0.0
04/18/1994,5.49,5.51,5.34,5.32,0.0
04/11/1994,5.55,5.51,5.33,5.3,0.0
04/04/1994,5.58,5.48,5.32,5.28,0.0
03/28/1994,5.56,5.43,5.31,5.25,0.0
03/21/1994,5.56,5.4,5.31,5.23,0.0
03/14/1994,5.52,5.35,5.28,5.2,0.0
03/07/1994,5.46,5.29,5.25,5.17,0.0
02/28/1994,5.39,5.25,5.24,5.14,0.0
02/21/1994,5.29,5.21,5.23,5.11,0.0
02/14/1994,5.24,5.18,5.24,5.09,0.0
02/07/1994,5.18,5.17,5.23,5.06,0.0
01/31/1994,5.11,5.15,5.2,5.03,0.0
01/24/1994,5.1,5.16,5.17,5.01,0.0
01/17/1994,5.13,5.19,5.16,5.0,0.0
01/10/1994,5.12,5.21,5.14,4.98,0.0
01/03/1994,5.16,5.2,5.13,4.96,0.0
12/27/1993,5.19,5.22,5.11,4.94,0.0
12/20/1993,5.21,5.24,5.09,4.92,0.0
12/13/1993,5.25,5.26,5.06,4.89,0.0
12/06/1993,5.31,5.29,5.04,4.87,0.0
11/29/1993,5.25,5.29,5.01,4.85,0.0
11/22/1993,5.26,5.25,4.97,0.0,0.0
11/15/1993,5.26,5.19,4.94,0.0,0.0
11/08/1993,5.27,5.13,4.9,0.0,0.0
11/01/1993,5.28,5.08,4.87,0.0,0.0
10/25/1993,5.33,5.05,4.84,0.0,0.0
10/18/1993,5.25,4.99,4.8,0.0,0.0
10/11/1993,5.12,4.93,4.75,0.0,0.0
10/04/1993,4.99,4.86,4.7,0.0,0.0
09/27/1993,4.87,4.78,4.66,0.0,0.0
09/20/1993,4.77,4.72,4.63,0.0,0.0
09/13/1993,4.74,4.69,0.0,0.0,0.0
09/06/1993,4.75,4.69,0.0,0.0,0.0
08/30/1993,4.72,4.68,0.0,0.0,0.0
08/23/1993,4.7,4.66,0.0,0.0,0.0
08/16/1993,4.68,4.63,0.0,0.0,0.0
08/09/1993,4.64,4.6,0.0,0.0,0.0
08/02/1993,4.63,4.58,0.0,0.0,0.0
07/26/1993,4.64,4.54,0.0,0.0,0.0
07/19/1993,4.61,4.53,0.0,0.0,0.0
07/12/1993,4.59,4.53,0.0,0.0,0.0
07/05/1993,4.56,0.0,0.0,0.0,0.0
06/28/1993,4.53,0.0,0.0,0.0,0.0
06/21/1993,4.45,0.0,0.0,0.0,0.0
06/14/1993,4.45,0.0,0.0,0.0,0.0
06/07/1993,4.48,0.0,0.0,0.0,0.0
05/31/1993,0.0,0.0,0.0,0.0,0.0
05/24/1993,0.0,0.0,0.0,0.0,0.0
05/17/1993,0.0,0.0,0.0,0.0,0.0
05/10/1993,0.0,0.0,0.0,0.0,0.0
