12/31/1999,12.4,12.6,12.38,12.56,0.06,0.0,138200.0
12/30/1999,13.06,13.06,12.35,12.5,-0.56,0.0,194800.0
12/29/1999,12.94,13.13,12.9,13.06,0.16,0.0,169000.0
12/28/1999,12.63,13.06,12.63,12.9,0.34,0.0,125200.0
12/27/1999,12.97,13.03,12.56,12.56,-0.41,0.0,144800.0
12/23/1999,12.69,13.03,12.69,12.97,0.03,0.0,172800.0
12/22/1999,12.88,13.1,12.88,12.94,-0.03,0.0,100000.0
12/21/1999,13.15,13.19,12.85,12.97,-0.22,0.0,171400.0
12/20/1999,13.88,13.94,13.06,13.19,-0.81,0.0,103600.0
12/17/1999,13.38,14.13,13.38,14.0,0.53,0.0,318600.0
12/16/1999,13.38,13.47,13.31,13.47,0.1,0.0,461199.0
12/15/1999,13.19,13.38,13.0,13.38,0.13,0.0,72400.0
12/14/1999,12.94,13.35,12.88,13.25,0.22,0.0,298800.0
12/13/1999,13.13,13.15,12.94,13.03,-0.13,0.0,86400.0
12/10/1999,13.22,13.22,12.75,13.15,-0.1,0.0,103600.0
12/09/1999,13.5,13.5,12.63,13.25,-0.25,0.0,199000.0
12/08/1999,13.69,13.69,13.38,13.5,-0.19,0.0,205600.0
12/07/1999,13.85,13.85,13.63,13.69,-0.21,0.0,164800.0
12/06/1999,13.78,14.06,13.72,13.9,0.06,0.0,69000.0
12/03/1999,13.78,14.13,13.75,13.85,0.16,0.0,107200.0
12/02/1999,13.25,13.9,13.25,13.69,0.31,0.0,181400.0
12/01/1999,13.47,13.53,13.19,13.38,-0.19,0.0,251000.0
11/30/1999,13.53,13.72,13.44,13.56,-0.06,0.0,158600.0
11/29/1999,13.5,13.63,13.1,13.63,0.19,0.0,282200.0
11/26/1999,13.38,13.44,13.06,13.44,0.13,0.0,151600.0
11/24/1999,13.56,13.56,13.03,13.31,-0.25,0.0,231800.0
11/23/1999,13.85,13.85,13.56,13.56,-0.25,0.0,185600.0
11/22/1999,13.75,14.06,13.75,13.81,-0.16,0.0,138800.0
11/19/1999,14.25,14.28,13.94,13.97,-0.53,0.0,97800.0
11/18/1999,14.4,14.63,14.1,14.5,-0.03,0.0,105600.0
11/17/1999,14.5,14.63,14.5,14.53,0.03,0.0,84000.0
11/16/1999,13.69,14.5,13.69,14.5,0.75,0.0,259200.0
11/15/1999,13.47,13.81,13.38,13.75,0.25,0.0,142400.0
11/12/1999,13.69,13.69,13.38,13.5,-0.06,0.0,41400.0
11/11/1999,13.65,13.72,13.25,13.56,-0.06,0.0,149600.0
11/10/1999,13.56,13.65,13.44,13.63,0.06,0.0,39600.0
11/09/1999,13.63,13.63,13.25,13.56,-0.03,0.0,69400.0
11/08/1999,13.97,13.97,13.53,13.6,-0.34,0.0,39200.0
11/05/1999,13.97,14.0,13.69,13.94,-0.09,0.0,114600.0
11/04/1999,13.97,14.15,13.88,14.03,-0.04,0.0,97200.0
11/03/1999,14.15,14.15,14.06,14.06,-0.16,0.0,210200.0
11/02/1999,13.85,14.31,13.85,14.22,0.44,0.0,161800.0
11/01/1999,13.38,13.81,13.38,13.78,0.34,0.0,155400.0
10/29/1999,12.88,13.44,12.78,13.44,0.59,0.0,133200.0
10/28/1999,12.06,12.85,12.06,12.85,0.78,0.0,280200.0
10/27/1999,12.28,12.31,12.0,12.06,-0.34,0.0,213600.0
10/26/1999,12.38,12.53,12.31,12.4,0.03,0.0,167200.0
10/25/1999,12.6,12.6,12.25,12.38,-0.25,0.0,209400.0
10/22/1999,12.75,12.78,12.03,12.63,-0.15,0.0,238599.0
10/21/1999,13.1,13.1,12.65,12.78,-0.44,0.0,213800.0
10/20/1999,13.5,13.5,13.13,13.22,-0.22,0.0,125800.0
10/19/1999,13.06,13.6,13.06,13.44,0.31,0.0,149800.0
10/18/1999,13.06,13.13,12.94,13.13,0.06,0.0,134400.0
10/15/1999,13.03,13.06,12.9,13.06,0.06,0.0,77200.0
10/14/1999,12.88,13.15,12.88,13.0,0.1,0.0,130200.0
10/13/1999,12.97,13.19,12.88,12.9,-0.07,0.0,88000.0
10/12/1999,12.85,13.13,12.81,12.97,0.13,0.0,127400.0
10/11/1999,12.88,12.88,12.81,12.85,-0.03,0.0,31400.0
10/08/1999,12.81,13.0,12.75,12.88,0.22,0.0,158000.0
10/07/1999,12.65,12.81,12.53,12.65,0.0,0.0,47400.0
10/06/1999,12.38,12.65,12.13,12.65,0.31,0.0,189800.0
10/05/1999,12.47,12.53,11.94,12.35,-0.22,0.0,142800.0
10/04/1999,12.75,12.9,12.53,12.56,-0.21,0.0,74000.0
10/01/1999,13.31,13.31,12.78,12.78,-0.6,0.0,117800.0
09/30/1999,12.47,13.38,12.4,13.38,0.9,0.0,216400.0
09/29/1999,11.88,12.47,11.85,12.47,0.47,0.0,89800.0
09/28/1999,12.35,12.35,11.75,12.0,-0.31,0.0,167200.0
09/27/1999,11.44,12.44,11.44,12.31,0.94,0.0,241200.0
09/24/1999,11.38,11.4,11.28,11.38,-0.03,0.0,564600.0
09/23/1999,12.25,12.25,11.25,11.4,-0.88,0.0,302200.0
09/22/1999,12.38,12.53,12.28,12.28,-0.07,0.0,73200.0
09/21/1999,12.25,12.5,12.19,12.35,0.1,0.0,162200.0
09/20/1999,12.65,12.85,12.25,12.25,-0.38,0.0,182200.0
09/17/1999,11.75,12.63,11.75,12.63,0.85,0.0,246800.0
09/16/1999,12.19,12.19,11.72,11.78,-0.41,0.0,307800.0
09/15/1999,12.6,12.6,12.19,12.19,-0.38,0.0,123200.0
09/14/1999,13.0,13.0,12.28,12.56,-0.44,0.0,144000.0
09/13/1999,13.38,13.38,12.97,13.0,-0.38,0.0,51400.0
09/10/1999,13.47,13.5,13.31,13.38,-0.15,0.0,105600.0
09/09/1999,13.35,13.56,13.35,13.53,0.13,0.0,76000.0
09/08/1999,13.28,13.44,13.19,13.4,0.06,0.0,55000.0
09/07/1999,13.19,13.44,13.19,13.35,0.16,0.0,113000.0
09/03/1999,12.72,13.19,12.72,13.19,0.5,0.0,91600.0
09/02/1999,12.5,12.75,12.5,12.69,-0.13,0.0,316200.0
09/01/1999,12.88,12.88,12.81,12.81,-0.06,0.0,110800.0
08/31/1999,12.69,12.94,12.65,12.88,0.31,0.0,137200.0
08/30/1999,12.6,12.75,12.5,12.56,0.0,0.0,86400.0
08/27/1999,12.78,12.78,12.4,12.56,-0.09,0.0,62800.0
08/26/1999,12.72,12.75,12.63,12.65,-0.1,0.0,115800.0
08/25/1999,12.63,12.81,12.63,12.75,0.06,0.0,314200.0
08/24/1999,12.85,12.85,12.63,12.69,-0.16,0.0,188600.0
08/23/1999,13.15,13.15,12.72,12.85,-0.25,0.0,187400.0
08/20/1999,13.0,13.13,12.97,13.1,-0.09,0.0,143400.0
08/19/1999,13.35,13.35,13.1,13.19,-0.16,0.0,90600.0
08/18/1999,13.72,13.72,13.28,13.35,-0.43,0.0,48800.0
08/17/1999,13.75,13.78,13.63,13.78,0.03,0.0,310000.0
08/16/1999,13.85,14.0,13.75,13.75,-0.06,0.0,546400.0
08/13/1999,13.78,13.81,13.72,13.81,0.0,0.0,187400.0
08/12/1999,13.78,13.9,13.69,13.81,0.06,0.0,83400.0
08/11/1999,13.9,13.9,13.4,13.75,-0.28,0.0,164400.0
08/10/1999,14.19,14.31,14.0,14.03,-0.22,0.0,103400.0
08/09/1999,14.13,14.31,14.13,14.25,0.19,0.0,62000.0
08/06/1999,13.75,14.1,13.72,14.06,0.31,0.0,88000.0
08/05/1999,14.0,14.0,13.63,13.75,-0.25,0.0,98200.0
08/04/1999,14.06,14.28,13.94,14.0,-0.13,0.0,80200.0
08/03/1999,14.06,14.13,13.72,14.13,0.1,0.0,160000.0
08/02/1999,14.4,14.5,13.94,14.03,-0.44,0.0,90200.0
07/30/1999,14.06,14.56,14.06,14.47,0.44,0.0,84800.0
07/29/1999,14.38,14.38,14.0,14.03,-0.32,0.0,190400.0
07/28/1999,14.5,14.5,14.06,14.35,-0.15,0.0,219000.0
07/27/1999,14.75,14.78,14.5,14.5,-0.25,0.0,333000.0
07/26/1999,14.69,14.75,14.63,14.75,0.06,0.0,188000.0
07/23/1999,15.0,15.0,14.65,14.69,-0.09,0.0,155600.0
07/22/1999,14.25,14.88,14.25,14.78,0.46,0.0,108600.0
07/21/1999,13.94,14.38,13.9,14.31,0.44,0.0,143200.0
07/20/1999,14.53,14.53,13.31,13.88,-0.72,0.0,264800.0
07/19/1999,14.78,14.78,14.6,14.6,-0.22,0.0,166200.0
07/16/1999,14.88,14.88,14.72,14.81,-0.09,0.0,87600.0
07/15/1999,14.97,15.0,14.9,14.9,0.06,0.0,115200.0
07/14/1999,14.94,15.0,14.85,14.85,-0.03,0.0,51200.0
07/13/1999,14.69,14.88,14.63,14.88,0.22,0.0,126400.0
07/12/1999,14.25,14.69,14.19,14.65,0.59,0.0,64400.0
07/09/1999,14.31,14.31,13.88,14.06,-0.25,0.0,86000.0
07/08/1999,14.47,14.47,13.5,14.31,-0.16,0.0,319600.0
07/07/1999,14.63,14.72,14.39,14.47,-0.13,0.0,82600.0
07/06/1999,15.06,15.06,14.6,14.6,-0.68,0.0,120200.0
07/02/1999,15.35,15.44,15.22,15.28,0.0,0.0,157400.0
07/01/1999,15.13,15.4,15.0,15.28,0.28,0.0,252600.0
06/30/1999,14.75,15.15,14.56,15.0,0.22,0.0,182600.0
06/29/1999,14.44,14.81,14.4,14.78,0.25,0.0,54600.0
06/28/1999,14.03,14.53,14.03,14.53,0.43,0.0,449200.0
06/25/1999,14.06,14.25,14.03,14.1,0.16,0.0,112800.0
06/24/1999,14.38,14.44,13.94,13.94,-0.5,0.0,248400.0
06/23/1999,14.69,14.69,14.31,14.44,-0.25,0.0,216400.0
06/22/1999,14.69,14.88,14.69,14.69,-0.06,0.0,111400.0
06/21/1999,15.0,15.0,14.44,14.75,-0.22,0.0,53200.0
06/18/1999,15.0,15.0,14.5,14.97,-0.03,0.0,158600.0
06/17/1999,15.15,15.15,14.9,15.0,-0.15,0.0,123400.0
06/16/1999,14.85,15.25,14.65,15.15,0.25,0.0,106400.0
06/15/1999,14.97,15.0,14.69,14.9,0.18,0.0,155400.0
06/14/1999,14.94,14.94,14.6,14.72,-0.09,0.0,37200.0
06/11/1999,14.22,14.94,14.22,14.81,0.66,0.0,119800.0
06/10/1999,14.69,14.72,14.06,14.15,-0.6,0.0,67400.0
06/09/1999,14.97,15.0,14.72,14.75,-0.25,0.0,31400.0
06/08/1999,13.97,15.19,13.88,15.0,1.03,0.0,83800.0
06/07/1999,13.85,13.97,13.69,13.97,0.25,0.0,49600.0
06/04/1999,13.88,13.88,13.63,13.72,-0.13,0.0,144200.0
06/03/1999,14.65,14.65,13.78,13.85,-0.78,0.0,138200.0
06/02/1999,14.6,14.85,14.38,14.63,0.06,0.0,146600.0
06/01/1999,13.81,14.56,13.81,14.56,0.81,0.0,296200.0
05/28/1999,14.25,14.25,13.75,13.75,-0.38,0.0,81000.0
05/27/1999,14.19,14.19,13.75,14.13,-0.06,0.0,122800.0
05/26/1999,13.88,14.25,13.88,14.19,0.44,0.0,232999.0
05/25/1999,14.28,14.47,13.72,13.75,-0.53,0.0,298200.0
05/24/1999,14.72,14.72,14.28,14.28,-0.41,0.0,165000.0
05/21/1999,15.25,15.28,14.47,14.69,-0.71,0.0,228400.0
05/20/1999,15.35,15.75,15.35,15.4,0.06,0.0,90800.0
05/19/1999,14.85,15.5,14.85,15.35,0.57,0.0,215200.0
05/18/1999,14.63,14.81,14.63,14.78,0.15,0.0,140200.0
05/17/1999,14.63,14.78,14.44,14.63,-0.13,0.0,162600.0
05/14/1999,14.81,14.81,14.6,14.75,0.13,0.0,123800.0
05/13/1999,14.31,14.81,14.31,14.63,0.56,0.0,195400.0
05/12/1999,14.1,14.13,13.75,14.06,-0.16,0.0,98200.0
05/11/1999,14.13,14.56,14.13,14.22,0.35,0.0,134600.0
05/10/1999,13.03,14.53,13.03,13.88,1.06,0.0,163600.0
05/07/1999,14.0,14.03,12.75,12.81,-1.25,0.0,114600.0
05/06/1999,13.81,14.06,13.81,14.06,0.25,0.0,63200.0
05/05/1999,13.72,13.94,13.6,13.81,0.04,0.0,47400.0
05/04/1999,13.65,14.38,13.65,13.78,0.25,0.0,198800.0
05/03/1999,13.69,13.81,13.5,13.53,-0.47,0.0,182600.0
04/30/1999,14.03,14.22,14.0,14.0,-0.03,0.0,74400.0
04/29/1999,14.5,14.5,12.81,14.03,-0.41,0.0,158400.0
04/28/1999,14.0,14.5,14.0,14.44,0.31,0.0,127400.0
04/27/1999,14.38,14.4,13.81,14.13,0.1,0.0,60000.0
04/26/1999,13.56,14.25,13.56,14.03,0.53,0.0,88200.0
04/23/1999,12.9,13.56,12.9,13.5,0.72,0.0,231200.0
04/22/1999,13.88,13.88,12.78,12.78,-1.04,0.0,184000.0
04/21/1999,14.13,14.47,13.81,13.81,-0.19,0.0,116600.0
04/20/1999,14.56,14.56,14.0,14.0,-0.5,0.0,67800.0
04/19/1999,14.25,15.0,14.19,14.5,0.15,0.0,109200.0
04/16/1999,14.19,14.63,14.19,14.35,0.03,0.0,68800.0
04/15/1999,13.88,14.69,13.85,14.31,0.41,0.0,125600.0
04/14/1999,13.06,14.06,13.06,13.9,0.9,0.0,122200.0
04/13/1999,12.56,13.63,12.56,13.0,0.63,0.0,203600.0
04/12/1999,12.69,13.13,12.38,12.38,-0.44,0.0,121400.0
04/09/1999,12.9,13.13,12.72,12.81,0.16,0.0,90200.0
04/08/1999,12.4,12.65,11.9,12.65,0.18,0.0,659400.0
04/07/1999,12.81,12.81,12.4,12.47,-0.31,0.0,173000.0
04/06/1999,12.97,12.97,12.53,12.78,-0.19,0.0,75400.0
04/05/1999,12.88,13.0,12.69,12.97,0.16,0.0,109400.0
04/01/1999,13.06,13.06,12.75,12.81,-0.19,0.0,51600.0
03/31/1999,13.38,13.38,12.5,13.0,-0.38,0.0,207600.0
03/30/1999,13.22,13.5,13.1,13.38,0.1,0.0,129200.0
03/29/1999,12.97,13.47,12.94,13.28,0.38,0.0,56800.0
03/26/1999,13.1,13.1,12.88,12.9,-0.19,0.0,135600.0
03/25/1999,12.5,13.31,12.5,13.1,0.41,0.0,147400.0
03/24/1999,12.97,12.97,12.44,12.69,-0.28,0.0,68000.0
03/23/1999,13.44,13.44,12.9,12.97,-0.59,0.0,56600.0
03/22/1999,13.75,13.75,13.5,13.56,-0.19,0.0,81000.0
03/19/1999,13.69,13.94,13.69,13.75,-0.13,0.0,118200.0
03/18/1999,14.35,14.38,13.75,13.88,-0.44,0.0,139200.0
03/17/1999,14.13,14.63,14.13,14.31,-0.09,0.0,187000.0
03/16/1999,14.44,14.53,14.38,14.4,-0.16,0.0,46600.0
03/15/1999,14.44,14.6,14.44,14.56,0.0,0.0,119200.0
03/12/1999,14.06,14.81,14.03,14.56,0.47,0.0,249200.0
03/11/1999,13.69,14.22,13.69,14.1,0.22,0.0,123600.0
03/10/1999,13.97,14.0,13.75,13.88,0.03,0.0,100000.0
03/09/1999,13.38,13.97,13.38,13.85,0.03,0.0,100800.0
03/08/1999,13.69,14.25,13.5,13.81,0.19,0.0,90200.0
03/05/1999,14.0,14.13,13.63,13.63,-0.38,0.0,72200.0
03/04/1999,13.47,14.03,13.47,14.0,0.53,0.0,102200.0
03/03/1999,13.53,13.53,13.19,13.47,-0.06,0.0,90600.0
03/02/1999,13.75,13.88,13.5,13.53,-0.1,0.0,130400.0
03/01/1999,13.81,14.0,13.63,13.63,-0.06,0.0,39200.0
02/26/1999,13.44,13.88,13.44,13.69,0.22,0.0,96800.0
02/25/1999,13.06,13.69,13.06,13.47,0.13,0.0,95200.0
02/24/1999,13.56,13.69,13.35,13.35,-0.22,0.0,59800.0
02/23/1999,13.65,14.44,13.5,13.56,0.04,0.0,154800.0
02/22/1999,13.19,13.65,13.19,13.53,0.71,0.0,190400.0
02/19/1999,12.22,13.06,12.13,12.81,0.72,0.0,410400.0
02/18/1999,12.15,12.19,11.56,12.1,-0.03,0.0,255600.0
02/17/1999,12.78,12.88,12.13,12.13,-0.72,0.0,132000.0
02/16/1999,12.15,12.85,12.15,12.85,0.82,0.0,66000.0
02/12/1999,13.06,13.06,12.0,12.03,-1.07,0.0,128000.0
02/11/1999,12.9,13.25,12.78,13.1,0.32,0.0,168600.0
02/10/1999,13.31,13.31,12.78,12.78,-0.54,0.0,161400.0
02/09/1999,13.63,13.63,13.06,13.31,-0.38,0.0,53000.0
02/08/1999,13.5,13.81,13.5,13.69,0.06,0.0,85800.0
02/05/1999,13.5,13.81,13.44,13.63,0.13,0.0,62800.0
02/04/1999,13.72,13.72,13.22,13.5,-0.22,0.0,192800.0
02/03/1999,14.38,14.38,13.72,13.72,-0.75,0.0,70800.0
02/02/1999,14.19,14.47,13.81,14.47,0.25,0.0,171400.0
02/01/1999,13.65,14.22,13.65,14.22,0.57,0.0,119400.0
01/29/1999,13.85,13.88,13.5,13.65,0.03,0.0,424800.0
01/28/1999,13.56,13.75,13.5,13.63,0.06,0.0,72200.0
01/27/1999,13.69,13.81,13.5,13.56,-0.13,0.0,121800.0
01/26/1999,13.5,13.85,13.5,13.69,0.19,0.0,75000.0
01/25/1999,13.56,13.81,13.5,13.5,-0.13,0.0,77400.0
01/22/1999,13.53,13.85,13.53,13.63,0.03,0.0,47200.0
01/21/1999,13.53,13.6,13.5,13.6,0.03,0.0,77600.0
01/20/1999,13.35,13.56,13.35,13.56,0.16,0.0,127000.0
01/19/1999,13.35,13.4,12.78,13.4,-0.04,0.0,156600.0
01/15/1999,12.94,13.44,12.72,13.44,0.5,0.0,215800.0
01/14/1999,12.88,13.13,12.88,12.94,0.06,0.0,115800.0
01/13/1999,12.75,13.38,12.65,12.88,-0.13,0.0,115600.0
01/12/1999,12.25,13.25,12.0,13.0,-0.13,0.0,392000.0
01/11/1999,13.38,13.44,13.1,13.13,-0.25,0.0,124000.0
01/08/1999,13.63,13.69,13.03,13.38,-0.19,0.0,66800.0
01/07/1999,13.78,13.85,13.5,13.56,-0.69,0.0,99000.0
01/06/1999,14.13,14.38,14.1,14.25,0.25,0.0,69000.0
01/05/1999,13.9,14.19,13.9,14.0,0.03,0.0,241200.0
01/04/1999,13.81,14.0,13.81,13.97,0.0,0.0,203000.0
12/31/1998,13.69,14.19,13.65,14.03,0.25,0.0,192800.0
12/30/1998,13.75,13.85,13.69,13.78,-0.04,0.0,180000.0
12/29/1998,13.69,13.81,13.53,13.81,0.0,0.0,138000.0
12/28/1998,14.0,14.0,13.78,13.81,-0.16,0.0,141000.0
12/24/1998,14.13,14.13,13.88,13.97,-0.13,0.0,84200.0
12/23/1998,14.06,14.1,13.85,14.1,0.03,0.0,57000.0
12/22/1998,14.56,14.56,14.06,14.06,-0.5,0.0,0.0
12/21/1998,14.19,15.06,14.19,14.56,0.5,0.0,313800.0
12/18/1998,13.25,14.19,13.15,14.06,0.81,0.0,237200.0
12/17/1998,12.81,13.35,12.81,13.25,0.56,0.0,125600.0
12/16/1998,12.69,12.72,12.5,12.69,0.06,0.0,296800.0
12/15/1998,13.6,13.6,12.63,12.63,-0.85,0.0,85200.0
12/14/1998,14.0,14.0,13.22,13.47,-0.47,0.0,90800.0
12/11/1998,14.44,14.44,13.75,13.94,-0.53,0.0,231600.0
12/10/1998,14.69,15.06,14.44,14.47,-0.22,0.0,123400.0
12/09/1998,14.44,14.69,14.31,14.69,0.25,0.0,187400.0
12/08/1998,14.47,14.47,14.25,14.44,-0.03,0.0,91800.0
12/07/1998,14.4,14.5,14.28,14.47,0.03,0.0,72000.0
12/04/1998,14.03,14.47,13.85,14.44,0.44,0.0,172800.0
12/03/1998,14.31,14.44,13.97,14.0,-0.38,0.0,113000.0
12/02/1998,14.35,14.38,14.28,14.38,0.03,0.0,102200.0
12/01/1998,13.94,14.35,13.81,14.35,0.38,0.0,321400.0
11/30/1998,14.1,14.25,13.97,13.97,-0.15,0.0,306400.0
11/27/1998,14.31,14.31,14.06,14.13,-0.31,0.0,115800.0
11/25/1998,14.5,14.5,14.4,14.44,-0.06,0.0,85600.0
11/24/1998,14.03,14.56,14.03,14.5,0.47,0.0,164400.0
11/23/1998,13.75,14.1,13.75,14.03,0.28,0.0,152200.0
11/20/1998,13.69,13.75,13.69,13.75,0.03,0.0,98600.0
11/19/1998,13.63,13.75,13.63,13.72,0.16,0.0,176800.0
11/18/1998,13.63,13.63,13.38,13.56,-0.03,0.0,347000.0
11/17/1998,13.65,13.65,13.6,13.6,-0.06,0.0,69400.0
11/16/1998,13.75,13.75,13.63,13.65,-0.07,0.0,141800.0
11/13/1998,13.75,13.75,13.63,13.72,0.0,0.0,61400.0
11/12/1998,13.81,13.81,13.63,13.72,-0.09,0.0,280600.0
11/11/1998,13.97,13.97,13.75,13.81,-0.09,0.0,101000.0
11/10/1998,13.85,13.9,13.72,13.9,0.0,0.0,250400.0
11/09/1998,13.81,14.0,13.81,13.9,-0.04,0.0,18600.0
11/06/1998,13.75,14.0,13.75,13.94,-0.03,0.0,322400.0
11/05/1998,14.0,14.09,13.56,13.97,-0.25,0.0,309800.0
11/04/1998,14.5,14.5,13.91,14.22,-0.03,0.0,103400.0
11/03/1998,14.06,14.25,14.0,14.25,0.22,0.0,137800.0
11/02/1998,13.5,14.34,13.5,14.03,0.66,0.0,280400.0
10/30/1998,13.5,14.0,13.38,13.38,-0.19,0.0,256999.0
10/29/1998,13.44,13.69,13.13,13.56,0.09,0.0,139200.0
10/28/1998,13.28,13.5,12.69,13.47,0.19,0.0,92600.0
10/27/1998,13.5,14.03,13.09,13.28,-0.75,0.0,333400.0
10/26/1998,14.0,14.88,13.97,14.03,-0.97,0.0,201600.0
10/23/1998,14.72,15.0,14.72,15.0,0.06,0.0,144600.0
10/22/1998,14.0,14.94,13.88,14.94,0.94,0.0,128000.0
10/21/1998,13.38,14.0,13.38,14.0,0.88,0.0,150800.0
10/20/1998,12.44,13.25,12.44,13.13,0.78,0.0,184200.0
10/19/1998,11.75,12.66,11.75,12.34,0.72,0.0,230200.0
10/16/1998,11.0,11.75,10.88,11.63,0.88,0.0,220800.0
10/15/1998,10.69,10.94,10.69,10.75,-0.09,0.0,117400.0
10/14/1998,10.81,10.97,10.81,10.84,-0.09,0.0,138400.0
10/13/1998,10.75,10.94,10.72,10.94,0.19,0.0,381400.0
10/12/1998,10.5,10.81,10.44,10.75,0.44,0.0,358000.0
10/09/1998,10.19,10.44,10.19,10.31,0.19,0.0,294200.0
10/08/1998,10.63,10.63,9.84,10.13,-0.63,0.0,178000.0
10/07/1998,11.0,11.25,10.72,10.75,-0.38,0.0,109400.0
10/06/1998,10.5,11.13,10.5,11.13,0.69,0.0,76000.0
10/05/1998,11.0,11.0,10.38,10.44,-0.56,0.0,501800.0
10/02/1998,10.25,11.25,10.25,11.0,0.75,0.0,442600.0
10/01/1998,11.38,11.38,10.25,10.25,-1.13,0.0,494200.0
09/30/1998,11.25,11.38,10.88,11.38,0.13,0.0,343200.0
09/29/1998,11.5,11.66,11.25,11.25,-0.25,0.0,346400.0
09/28/1998,12.0,12.19,11.5,11.5,-0.5,0.0,472600.0
09/25/1998,12.0,12.25,11.91,12.0,0.0,0.0,490600.0
09/24/1998,12.5,12.5,11.06,12.0,-1.19,0.0,1077800.0
09/23/1998,13.09,13.56,13.09,13.19,-0.53,0.0,314400.0
09/22/1998,14.0,14.03,13.72,13.72,-0.06,0.0,95800.0
09/21/1998,13.5,13.81,13.38,13.78,-0.16,0.0,68000.0
09/18/1998,13.63,14.0,13.63,13.94,0.59,0.0,138600.0
09/17/1998,13.22,13.56,13.22,13.34,-0.34,0.0,78800.0
09/16/1998,13.28,13.69,13.28,13.69,0.34,0.0,68200.0
09/15/1998,13.0,13.44,12.94,13.34,0.28,0.0,327600.0
09/14/1998,13.34,13.38,12.81,13.06,-0.34,0.0,110400.0
09/11/1998,13.31,13.47,13.31,13.41,0.09,0.0,75600.0
09/10/1998,14.0,14.0,13.19,13.31,-0.81,0.0,102000.0
09/09/1998,14.5,14.5,14.0,14.13,-0.38,0.0,45600.0
09/08/1998,14.34,14.66,14.34,14.5,0.22,0.0,85400.0
09/04/1998,14.0,14.31,13.88,14.28,0.41,0.0,94800.0
09/03/1998,13.16,13.97,13.16,13.88,0.41,0.0,276400.0
09/02/1998,14.0,14.31,13.44,13.47,-0.69,0.0,76800.0
09/01/1998,13.5,14.34,13.38,14.16,-0.03,0.0,145000.0
08/31/1998,14.0,14.72,14.0,14.19,0.22,0.0,142600.0
08/28/1998,14.0,14.34,13.75,13.97,-0.5,0.0,181400.0
08/27/1998,15.0,15.09,14.47,14.47,-0.81,0.0,39800.0
08/26/1998,15.13,15.78,14.84,15.28,0.17,0.0,113000.0
08/25/1998,15.25,15.38,15.03,15.11,-0.08,0.0,112000.0
08/24/1998,15.06,15.28,15.02,15.19,0.17,0.0,116800.0
08/21/1998,15.31,15.31,14.88,15.02,-0.28,0.0,79200.0
08/20/1998,15.5,15.5,15.28,15.3,-0.2,0.0,76000.0
08/19/1998,15.63,15.69,15.47,15.5,-0.13,0.0,234800.0
08/18/1998,15.31,15.72,15.3,15.63,0.33,0.0,477199.0
08/17/1998,15.03,15.31,15.03,15.3,0.27,0.0,67200.0
08/14/1998,14.75,15.03,14.75,15.03,0.31,0.0,76800.0
08/13/1998,14.59,14.77,14.59,14.72,0.11,0.0,209600.0
08/12/1998,14.31,14.63,14.3,14.61,0.31,0.0,150800.0
08/11/1998,14.3,14.5,14.3,14.3,-0.38,0.0,68400.0
08/10/1998,14.97,14.97,14.63,14.67,-0.28,0.0,114800.0
08/07/1998,14.91,15.11,14.88,14.95,0.06,0.0,163200.0
08/06/1998,14.92,14.92,14.72,14.89,-0.09,0.0,103600.0
08/05/1998,14.81,14.98,14.7,14.98,0.19,0.0,247600.0
08/04/1998,15.06,15.19,14.8,14.8,-0.02,0.0,155600.0
08/03/1998,15.41,15.41,14.77,14.81,-0.58,0.0,156000.0
07/31/1998,15.31,15.63,15.31,15.39,0.05,0.0,275200.0
07/30/1998,15.0,15.38,15.0,15.34,0.34,0.0,129600.0
07/29/1998,15.44,15.48,15.0,15.0,-0.59,0.0,562400.0
07/28/1998,16.0,16.03,15.34,15.59,-0.56,0.0,398000.0
07/27/1998,16.31,16.33,16.06,16.16,-0.19,0.0,610400.0
07/24/1998,16.34,16.47,16.33,16.34,0.0,0.0,89200.0
07/23/1998,16.34,16.5,16.31,16.34,0.02,0.0,394400.0
07/22/1998,16.34,16.34,16.31,16.33,0.02,0.0,812400.0
07/21/1998,16.31,16.41,16.31,16.31,-0.06,0.0,174000.0
07/20/1998,16.31,16.5,16.31,16.38,0.05,0.0,441600.0
07/17/1998,16.5,16.66,16.31,16.33,-0.14,0.0,3279200.0
07/16/1998,16.41,16.63,16.38,16.47,0.13,0.0,210400.0
07/15/1998,16.25,16.36,16.25,16.34,0.06,0.0,65600.0
07/14/1998,16.16,16.72,16.16,16.28,0.14,0.0,411600.0
07/13/1998,16.25,16.28,16.14,16.14,0.06,0.0,120000.0
07/10/1998,15.89,16.13,15.89,16.08,0.11,0.0,145600.0
07/09/1998,15.84,16.06,15.84,15.97,0.11,0.0,120400.0
07/08/1998,15.78,15.88,15.78,15.86,-0.05,0.0,82800.0
07/07/1998,15.86,15.92,15.86,15.91,0.0,0.0,41600.0
07/06/1998,15.75,15.94,15.69,15.91,0.23,0.0,86000.0
07/02/1998,15.75,15.81,15.67,15.67,-0.08,0.0,59200.0
07/01/1998,15.56,15.78,15.56,15.75,0.2,0.0,57600.0
06/30/1998,15.75,15.97,15.55,15.55,-0.09,0.0,247600.0
06/29/1998,15.05,15.64,15.05,15.64,0.59,0.0,162000.0
06/26/1998,14.94,15.05,14.94,15.05,0.09,0.0,34400.0
06/25/1998,15.0,15.23,14.91,14.95,-0.11,0.0,107200.0
06/24/1998,14.77,15.25,14.77,15.06,0.27,0.0,148400.0
06/23/1998,14.7,14.81,14.7,14.8,0.09,0.0,180400.0
06/22/1998,14.67,14.72,14.67,14.7,0.0,0.0,12800.0
06/19/1998,14.75,14.78,14.69,14.7,-0.11,0.0,115600.0
06/18/1998,14.75,15.06,14.63,14.81,-0.09,0.0,260000.0
06/17/1998,14.94,15.03,14.91,14.91,-0.03,0.0,188000.0
06/16/1998,14.83,15.03,14.83,14.94,0.16,0.0,260800.0
06/15/1998,15.0,15.11,14.72,14.78,-0.34,0.0,288000.0
06/12/1998,14.88,15.13,14.88,15.13,0.28,0.0,178400.0
06/11/1998,15.25,15.36,14.81,14.84,-0.55,0.0,118000.0
06/10/1998,15.75,15.77,15.39,15.39,-0.38,0.0,91600.0
06/09/1998,15.75,15.92,15.75,15.77,-0.13,0.0,145600.0
06/08/1998,15.88,15.94,15.88,15.89,0.03,0.0,72800.0
06/05/1998,15.67,15.88,15.67,15.86,0.2,0.0,118400.0
06/04/1998,15.75,15.86,15.59,15.66,-0.2,0.0,39200.0
06/03/1998,16.0,16.06,15.84,15.86,-0.2,0.0,26400.0
06/02/1998,16.25,16.47,16.03,16.06,-0.19,0.0,122000.0
06/01/1998,16.25,16.31,16.2,16.25,0.05,0.0,54400.0
05/29/1998,16.25,16.44,16.2,16.2,-0.2,0.0,135200.0
05/28/1998,16.03,16.47,15.91,16.41,0.38,0.0,251200.0
05/27/1998,15.88,16.03,15.88,16.03,0.11,0.0,93600.0
05/26/1998,15.89,15.95,15.89,15.92,0.09,0.0,380000.0
05/22/1998,16.0,16.19,15.83,15.83,-0.39,0.0,139600.0
05/21/1998,16.25,16.31,16.19,16.22,-0.09,0.0,239600.0
05/20/1998,16.25,16.38,16.25,16.31,-0.13,0.0,212400.0
05/19/1998,16.19,16.44,16.19,16.44,0.25,0.0,239200.0
05/18/1998,16.25,16.34,16.16,16.19,-0.06,0.0,113600.0
05/15/1998,16.0,16.25,16.0,16.25,0.25,0.0,68000.0
05/14/1998,15.97,16.0,15.94,16.0,0.03,0.0,434800.0
05/13/1998,15.94,15.97,15.88,15.97,0.06,0.0,51200.0
05/12/1998,16.0,16.0,15.84,15.91,-0.09,0.0,227200.0
05/11/1998,16.0,16.38,15.69,16.0,0.33,0.0,192000.0
05/08/1998,15.45,15.7,15.45,15.67,0.23,0.0,47200.0
05/07/1998,15.42,15.53,15.42,15.44,0.02,0.0,53200.0
05/06/1998,15.42,15.56,15.42,15.42,0.0,0.0,148400.0
05/05/1998,15.5,15.5,15.41,15.42,-0.05,0.0,175600.0
05/04/1998,15.41,15.69,15.41,15.47,-0.03,0.0,80800.0
05/01/1998,15.5,15.59,15.19,15.5,-0.13,0.0,227600.0
04/30/1998,14.75,15.81,14.75,15.63,0.88,0.0,353600.0
04/29/1998,14.63,14.78,14.63,14.75,0.14,0.0,92400.0
04/28/1998,14.5,14.69,14.45,14.61,0.22,0.0,134000.0
04/27/1998,14.5,14.58,14.19,14.39,-0.19,0.0,130400.0
04/24/1998,14.5,14.69,14.48,14.58,0.08,0.0,120000.0
04/23/1998,14.5,15.13,14.5,14.5,-0.23,0.0,194400.0
04/22/1998,14.75,14.94,14.63,14.73,0.36,0.0,267600.0
04/21/1998,14.02,14.39,14.02,14.38,0.36,0.0,184400.0
04/20/1998,14.5,14.75,14.0,14.02,-0.67,0.0,270800.0
04/17/1998,14.63,14.81,14.63,14.69,0.0,0.0,303200.0
04/16/1998,14.75,14.94,14.58,14.69,-0.27,0.0,111600.0
04/15/1998,15.0,15.11,14.94,14.95,-0.05,0.0,101200.0
04/14/1998,15.0,15.16,15.0,15.0,-0.09,0.0,114800.0
04/13/1998,14.88,15.11,14.88,15.09,0.11,0.0,76800.0
04/09/1998,14.86,15.25,14.86,14.98,0.11,0.0,184400.0
04/08/1998,14.75,14.94,14.75,14.88,0.06,0.0,216000.0
04/07/1998,14.75,14.94,14.75,14.81,-0.17,0.0,112000.0
04/06/1998,15.25,15.3,14.94,14.98,-0.28,0.0,298800.0
04/03/1998,15.25,15.48,15.25,15.27,-0.11,0.0,64000.0
04/02/1998,15.38,15.44,15.38,15.38,-0.11,0.0,105200.0
04/01/1998,15.02,15.5,15.02,15.48,0.47,0.0,209600.0
03/31/1998,14.97,15.09,14.97,15.02,0.05,0.0,686800.0
03/30/1998,15.0,15.06,14.95,14.97,-0.05,0.0,100800.0
03/27/1998,15.25,15.25,15.0,15.02,-0.23,0.0,93600.0
03/26/1998,15.25,15.34,15.25,15.25,-0.03,0.0,82000.0
03/25/1998,15.5,15.59,15.25,15.28,-0.28,0.0,142400.0
03/24/1998,15.75,15.84,15.56,15.56,-0.31,0.0,81200.0
03/23/1998,15.75,15.91,15.72,15.88,0.13,0.0,80800.0
03/20/1998,15.5,15.78,15.47,15.75,0.22,0.0,183200.0
03/19/1998,15.5,15.56,15.5,15.53,0.03,0.0,52800.0
03/18/1998,15.41,15.5,15.41,15.5,0.11,0.0,53200.0
03/17/1998,15.38,15.44,15.38,15.39,0.03,0.0,41200.0
03/16/1998,15.25,15.36,15.19,15.36,0.11,0.0,56800.0
03/13/1998,15.38,15.44,15.13,15.25,-0.02,0.0,245600.0
03/12/1998,15.25,15.36,15.22,15.27,-0.14,0.0,38000.0
03/11/1998,15.06,15.41,15.06,15.41,0.38,0.0,173600.0
03/10/1998,15.0,15.09,15.0,15.03,0.0,0.0,194400.0
03/09/1998,14.77,15.03,14.77,15.03,0.19,0.0,106000.0
03/06/1998,14.94,15.16,14.81,14.84,-0.09,0.0,144400.0
03/05/1998,14.69,15.0,14.69,14.94,0.19,0.0,220800.0
03/04/1998,14.72,14.75,14.72,14.75,0.0,0.0,64000.0
03/03/1998,14.84,14.94,14.72,14.75,-0.09,0.0,50800.0
03/02/1998,14.44,14.84,14.44,14.84,0.42,0.0,311600.0
02/27/1998,14.5,14.58,14.38,14.42,-0.16,0.0,63600.0
02/26/1998,14.44,14.58,14.42,14.58,0.08,0.0,78000.0
02/25/1998,14.5,14.63,14.48,14.5,0.0,0.0,96400.0
02/24/1998,14.47,14.52,14.27,14.5,0.03,0.0,71200.0
02/23/1998,14.63,14.69,14.41,14.47,0.0,0.0,405600.0
02/20/1998,14.41,14.47,14.36,14.47,0.05,0.0,50000.0
02/19/1998,14.45,14.47,14.28,14.42,0.16,0.0,327200.0
02/18/1998,14.16,14.28,14.16,14.27,0.08,0.0,76000.0
02/17/1998,13.78,14.19,13.78,14.19,0.45,0.0,98000.0
02/13/1998,13.66,13.78,13.63,13.73,0.06,0.0,101600.0
02/12/1998,13.88,13.91,13.52,13.67,-0.27,0.0,87200.0
02/11/1998,13.92,14.08,13.89,13.94,0.06,0.0,67600.0
02/10/1998,13.5,13.91,13.44,13.88,0.45,0.0,106400.0
02/09/1998,13.64,13.67,13.34,13.42,-0.28,0.0,102400.0
02/06/1998,13.81,13.94,13.64,13.7,-0.03,0.0,183200.0
02/05/1998,13.38,13.84,13.36,13.73,0.44,0.0,174800.0
02/04/1998,13.27,13.31,13.23,13.3,0.06,0.0,332000.0
02/03/1998,13.28,13.31,13.19,13.23,0.0,0.0,389200.0
02/02/1998,12.77,13.41,12.75,13.23,0.48,0.0,186000.0
01/30/1998,12.8,13.19,12.75,12.75,0.17,0.0,176000.0
01/29/1998,12.44,12.58,12.41,12.58,0.16,0.0,540800.0
01/28/1998,12.44,12.48,12.31,12.42,0.0,0.0,238800.0
01/27/1998,12.34,12.52,12.34,12.42,0.02,0.0,51600.0
01/26/1998,12.5,12.5,12.39,12.41,-0.06,0.0,219600.0
01/23/1998,12.45,12.47,12.34,12.47,0.02,0.0,241600.0
01/22/1998,12.5,12.56,12.36,12.45,-0.08,0.0,214400.0
01/21/1998,12.06,12.56,11.98,12.53,0.27,0.0,254000.0
01/20/1998,12.31,12.31,12.25,12.27,-0.03,0.0,98400.0
01/16/1998,12.36,12.47,12.3,12.3,-0.03,0.0,211600.0
01/15/1998,12.25,12.34,12.22,12.33,0.14,0.0,137200.0
01/14/1998,12.25,12.27,12.19,12.19,-0.06,0.0,163600.0
01/13/1998,12.25,12.27,12.19,12.25,0.02,0.0,138800.0
01/12/1998,12.17,12.33,12.17,12.23,-0.06,0.0,469199.0
01/09/1998,12.69,12.84,12.28,12.3,-0.48,0.0,366800.0
01/08/1998,12.88,12.88,12.66,12.78,-0.09,0.0,132400.0
01/07/1998,13.25,13.25,12.88,12.88,-0.38,0.0,248000.0
01/06/1998,13.58,13.64,13.25,13.25,-0.33,0.0,77600.0
01/05/1998,13.75,13.75,13.5,13.58,-0.2,0.0,142400.0
01/02/1998,13.89,13.89,13.44,13.78,0.0,0.0,148400.0
12/31/1997,13.44,13.89,13.44,13.88,0.45,0.0,101200.0
12/30/1997,13.42,13.48,13.39,13.42,0.02,0.0,174000.0
12/29/1997,13.2,13.47,13.11,13.41,0.2,0.0,163600.0
12/26/1997,13.23,13.23,13.11,13.2,-0.03,0.0,28400.0
12/24/1997,13.28,13.28,13.16,13.23,-0.05,0.0,54000.0
12/23/1997,13.38,13.38,13.23,13.28,-0.11,0.0,140400.0
12/22/1997,13.48,13.5,13.36,13.39,-0.06,0.0,310800.0
12/19/1997,13.63,13.63,13.38,13.45,-0.17,0.0,54800.0
12/18/1997,13.95,13.98,13.56,13.63,-0.36,0.0,133600.0
12/17/1997,14.09,14.09,13.94,13.98,-0.11,0.0,76000.0
12/16/1997,13.91,14.13,13.91,14.09,0.09,0.0,222400.0
12/15/1997,14.05,14.06,13.97,14.0,-0.09,0.0,40800.0
12/12/1997,14.06,14.17,13.94,14.09,0.13,0.0,35200.0
12/11/1997,14.08,14.08,13.84,13.97,-0.09,0.0,34000.0
12/10/1997,14.17,14.3,13.84,14.06,-0.23,0.0,189600.0
12/09/1997,14.44,14.5,14.28,14.3,-0.2,0.0,150000.0
12/08/1997,14.69,14.69,14.48,14.5,-0.19,0.0,44000.0
12/05/1997,14.63,14.78,14.63,14.69,0.05,0.0,181200.0
12/04/1997,14.63,14.66,14.63,14.64,0.02,0.0,83600.0
12/03/1997,14.31,14.63,14.31,14.63,0.31,0.0,124400.0
12/02/1997,14.56,14.61,14.28,14.31,-0.25,0.0,85200.0
12/01/1997,14.25,14.59,14.25,14.56,0.31,0.0,168800.0
11/28/1997,14.22,14.25,14.22,14.25,0.03,0.0,6000.0
11/26/1997,14.13,14.22,14.13,14.22,0.08,0.0,24000.0
11/25/1997,14.11,14.17,14.11,14.14,0.03,0.0,44000.0
11/24/1997,14.14,14.16,14.08,14.11,0.0,0.0,57200.0
11/21/1997,14.16,14.16,14.09,14.11,-0.03,0.0,60400.0
11/20/1997,14.19,14.39,14.14,14.14,-0.06,0.0,135200.0
11/19/1997,13.72,14.28,13.67,14.2,0.56,0.0,118800.0
11/18/1997,13.89,13.89,13.64,13.64,-0.31,0.0,82800.0
11/17/1997,13.25,14.03,13.25,13.95,0.8,0.0,208400.0
11/14/1997,12.7,13.2,12.7,13.16,0.47,0.0,117600.0
11/13/1997,12.75,12.75,12.61,12.69,-0.13,0.0,108800.0
11/12/1997,13.06,13.06,12.78,12.81,-0.31,0.0,64800.0
11/11/1997,13.13,13.25,13.03,13.13,-0.06,0.0,59200.0
11/10/1997,13.44,13.56,13.19,13.19,-0.28,0.0,68800.0
11/07/1997,13.69,13.72,13.45,13.47,-0.28,0.0,35600.0
11/06/1997,14.03,14.05,13.75,13.75,-0.25,0.0,456000.0
11/05/1997,13.94,14.0,13.91,14.0,0.0,0.0,21200.0
11/04/1997,13.98,14.06,13.94,14.0,-0.06,0.0,53600.0
11/03/1997,13.75,14.06,13.7,14.06,0.33,0.0,78800.0
10/31/1997,13.59,13.75,13.58,13.73,0.11,0.0,138800.0
10/30/1997,13.7,13.75,13.61,13.63,-0.31,0.0,112400.0
10/29/1997,13.78,14.22,13.78,13.94,0.23,0.0,122000.0
10/28/1997,13.42,13.7,13.39,13.7,0.06,0.0,151200.0
10/27/1997,14.17,14.17,13.45,13.64,-0.59,0.0,116000.0
10/24/1997,13.84,14.23,13.83,14.23,0.44,0.0,150400.0
10/23/1997,13.91,14.05,13.78,13.8,-0.42,0.0,379600.0
10/22/1997,13.97,14.22,13.94,14.22,0.28,0.0,55200.0
10/21/1997,13.81,14.13,13.75,13.94,0.19,0.0,112000.0
10/20/1997,13.38,13.78,13.38,13.75,0.22,0.0,98800.0
10/17/1997,13.72,13.78,13.5,13.53,-0.39,0.0,129200.0
10/16/1997,14.19,14.44,13.92,13.92,-0.14,0.0,114800.0
10/15/1997,14.16,14.23,14.02,14.06,-0.17,0.0,67600.0
10/14/1997,14.3,14.3,14.17,14.23,-0.08,0.0,30400.0
10/13/1997,14.28,14.5,14.25,14.31,0.13,0.0,159600.0
10/10/1997,14.16,14.23,14.06,14.19,-0.03,0.0,57200.0
10/09/1997,14.16,14.22,14.13,14.22,-0.03,0.0,26800.0
10/08/1997,14.19,14.25,14.14,14.25,0.03,0.0,126800.0
10/07/1997,14.28,14.28,14.2,14.22,0.03,0.0,138800.0
10/06/1997,14.03,14.19,13.97,14.19,0.19,0.0,61200.0
10/03/1997,14.19,14.25,14.0,14.0,-0.13,0.0,138400.0
10/02/1997,14.13,14.13,14.0,14.13,0.03,0.0,35200.0
10/01/1997,13.98,14.09,13.91,14.09,0.11,0.0,81600.0
09/30/1997,14.14,14.14,13.91,13.98,0.08,0.0,118800.0
09/29/1997,14.06,14.06,13.83,13.91,-0.08,0.0,111600.0
09/26/1997,14.28,14.28,13.94,13.98,-0.27,0.0,63600.0
09/25/1997,14.22,14.28,14.13,14.25,0.0,0.0,48400.0
09/24/1997,14.13,14.28,14.13,14.25,0.09,0.0,121600.0
09/23/1997,13.91,14.16,13.81,14.16,0.25,0.0,197600.0
09/22/1997,14.06,14.06,13.88,13.91,-0.22,0.0,54000.0
09/19/1997,13.91,14.13,13.91,14.13,0.16,0.0,91600.0
09/18/1997,13.92,14.0,13.81,13.97,-0.19,0.0,101600.0
09/17/1997,14.22,14.25,14.09,14.16,-0.06,0.0,110400.0
09/16/1997,14.0,14.25,14.0,14.22,0.22,0.0,121200.0
09/15/1997,13.97,14.0,13.94,14.0,0.0,0.0,83600.0
09/12/1997,13.97,14.03,13.94,14.0,0.0,0.0,206000.0
09/11/1997,13.94,14.0,13.81,14.0,0.03,0.0,73600.0
09/10/1997,13.97,14.03,13.94,13.97,0.03,0.0,131200.0
09/09/1997,13.69,13.94,13.53,13.94,0.22,0.0,285600.0
09/08/1997,13.95,13.97,13.59,13.72,-0.25,0.0,270800.0
09/05/1997,13.97,14.03,13.94,13.97,-0.13,0.0,40400.0
09/04/1997,14.25,14.28,14.06,14.09,-0.25,0.0,333600.0
09/03/1997,14.58,14.59,14.31,14.34,-0.27,0.0,231200.0
09/02/1997,14.06,14.61,14.06,14.61,0.55,0.0,117600.0
08/29/1997,13.31,14.06,13.31,14.06,0.16,0.0,79200.0
08/28/1997,13.88,13.91,13.81,13.91,0.03,0.0,66800.0
08/27/1997,13.5,13.88,13.44,13.88,0.41,0.0,114400.0
08/26/1997,13.44,13.5,13.44,13.47,0.06,0.0,198400.0
08/25/1997,13.41,13.5,13.41,13.41,0.0,0.0,20800.0
08/22/1997,13.25,13.41,13.25,13.41,0.09,0.0,60800.0
08/21/1997,13.31,13.31,13.25,13.31,0.0,0.0,82400.0
08/20/1997,13.44,13.44,13.25,13.31,-0.19,0.0,152800.0
08/19/1997,13.38,13.5,13.31,13.5,0.25,0.0,67600.0
08/18/1997,13.59,13.63,13.13,13.25,-0.38,0.0,264800.0
08/15/1997,13.66,13.94,13.63,13.63,-0.03,0.0,178400.0
08/14/1997,13.63,13.66,13.63,13.66,0.0,0.0,26000.0
08/13/1997,13.67,13.69,13.59,13.66,-0.03,0.0,158400.0
08/12/1997,13.75,13.78,13.63,13.69,-0.06,0.0,218800.0
08/11/1997,13.56,13.75,13.56,13.75,0.19,0.0,124800.0
08/08/1997,13.88,13.88,13.56,13.56,-0.34,0.0,213600.0
08/07/1997,13.59,13.91,13.59,13.91,0.31,0.0,163600.0
08/06/1997,13.44,13.63,13.44,13.59,0.16,0.0,405600.0
08/05/1997,13.25,13.44,13.25,13.44,0.25,0.0,98800.0
08/04/1997,13.06,13.25,12.94,13.19,0.25,0.0,130400.0
08/01/1997,12.69,12.94,12.66,12.94,0.22,0.0,144800.0
07/31/1997,12.66,13.03,12.66,12.72,0.09,0.0,179600.0
07/30/1997,12.41,12.63,12.38,12.63,0.22,0.0,190800.0
07/29/1997,12.25,12.41,12.25,12.41,0.22,0.0,220400.0
07/28/1997,12.06,12.25,12.0,12.19,0.19,0.0,124400.0
07/25/1997,12.0,12.09,12.0,12.0,0.06,0.0,214400.0
07/24/1997,11.38,12.0,11.28,11.94,0.56,0.0,659600.0
07/23/1997,11.38,11.38,11.34,11.38,0.06,0.0,119200.0
07/22/1997,11.25,11.34,11.25,11.31,0.06,0.0,69200.0
07/21/1997,11.41,11.44,11.25,11.25,-0.19,0.0,68000.0
07/18/1997,11.5,11.5,11.22,11.44,-0.13,0.0,110400.0
07/17/1997,11.7,11.72,11.56,11.56,-0.16,0.0,128000.0
07/16/1997,11.56,11.72,11.56,11.72,0.16,0.0,111600.0
07/15/1997,11.5,11.56,11.5,11.56,0.03,0.0,28400.0
07/14/1997,11.47,11.56,11.47,11.53,0.06,0.0,71200.0
07/11/1997,11.34,11.5,11.34,11.47,0.13,0.0,118800.0
07/10/1997,11.19,11.34,11.19,11.34,0.16,0.0,26400.0
07/09/1997,11.13,11.38,11.13,11.19,0.06,0.0,206800.0
07/08/1997,11.22,11.22,11.13,11.13,-0.09,0.0,50000.0
07/07/1997,11.38,11.38,11.22,11.22,-0.16,0.0,28000.0
07/03/1997,11.28,11.38,11.28,11.38,0.09,0.0,16000.0
07/02/1997,11.34,11.34,11.22,11.28,-0.13,0.0,60400.0
07/01/1997,11.25,11.41,11.22,11.41,0.09,0.0,152800.0
06/30/1997,11.09,11.47,11.09,11.31,0.22,0.0,190400.0
06/27/1997,10.88,11.09,10.88,11.09,0.38,0.0,153600.0
06/26/1997,10.94,10.94,10.72,10.72,-0.28,0.0,86800.0
06/25/1997,10.94,11.0,10.88,11.0,0.13,0.0,58000.0
06/24/1997,10.88,10.94,10.88,10.88,0.0,0.0,68800.0
06/23/1997,10.97,10.97,10.88,10.88,-0.06,0.0,102000.0
06/20/1997,10.91,11.0,10.88,10.94,-0.03,0.0,171200.0
06/19/1997,11.0,11.0,10.94,10.97,-0.03,0.0,93200.0
06/18/1997,11.0,11.03,10.94,11.0,0.06,0.0,54000.0
06/17/1997,10.88,11.03,10.84,10.94,0.09,0.0,205600.0
06/16/1997,11.0,11.0,10.84,10.84,-0.16,0.0,32000.0
06/13/1997,10.97,11.03,10.97,11.0,0.06,0.0,67600.0
06/12/1997,10.69,10.94,10.69,10.94,0.19,0.0,47200.0
06/11/1997,11.0,11.06,10.75,10.75,-0.25,0.0,133200.0
06/10/1997,11.06,11.06,10.94,11.0,-0.22,0.0,68000.0
06/09/1997,11.31,11.44,11.22,11.22,-0.16,0.0,71600.0
06/06/1997,11.13,11.41,11.13,11.38,0.22,0.0,242400.0
06/05/1997,11.28,11.31,11.13,11.16,-0.16,0.0,146000.0
06/04/1997,11.25,11.31,11.19,11.31,0.06,0.0,52800.0
06/03/1997,11.28,11.28,11.22,11.25,0.0,0.0,126800.0
06/02/1997,11.13,11.28,11.13,11.25,0.16,0.0,299600.0
05/30/1997,11.06,11.09,10.94,11.09,0.03,0.0,46800.0
05/29/1997,10.97,11.06,10.97,11.06,0.06,0.0,42800.0
05/28/1997,11.0,11.03,11.0,11.0,-0.06,0.0,122400.0
05/27/1997,10.84,11.09,10.75,11.06,0.22,0.0,83600.0
05/23/1997,10.75,10.84,10.75,10.84,0.09,0.0,28800.0
05/22/1997,10.5,10.75,10.5,10.75,0.19,0.0,93200.0
05/21/1997,10.5,10.56,10.47,10.56,0.03,0.0,104000.0
05/20/1997,10.44,10.56,10.41,10.53,0.09,0.0,264400.0
05/19/1997,10.25,10.44,10.25,10.44,0.19,0.0,35200.0
05/16/1997,10.31,10.31,10.25,10.25,-0.06,0.0,61600.0
05/15/1997,10.22,10.31,10.19,10.31,0.13,0.0,118800.0
05/14/1997,10.25,10.25,10.19,10.19,-0.09,0.0,29600.0
05/13/1997,10.5,10.53,10.25,10.28,-0.25,0.0,79200.0
05/12/1997,10.25,10.53,10.19,10.53,0.28,0.0,147200.0
05/09/1997,10.28,10.31,10.25,10.25,0.0,0.0,60000.0
05/08/1997,10.16,10.41,10.16,10.25,0.06,0.0,74000.0
05/07/1997,10.22,10.22,10.16,10.19,0.0,0.0,86800.0
05/06/1997,10.03,10.28,10.03,10.19,0.09,0.0,144400.0
05/05/1997,10.06,10.16,9.94,10.09,0.03,0.0,172800.0
05/02/1997,9.91,10.19,9.91,10.06,0.13,0.0,187600.0
05/01/1997,10.0,10.03,9.81,9.94,-0.06,0.0,153200.0
04/30/1997,9.97,10.13,9.97,10.0,0.03,0.0,154000.0
04/29/1997,9.88,9.97,9.88,9.97,0.13,0.0,316400.0
04/28/1997,9.97,9.97,9.81,9.84,-0.06,0.0,219200.0
04/25/1997,10.0,10.09,9.81,9.91,-0.03,0.0,284400.0
04/24/1997,9.66,10.06,9.66,9.94,0.28,0.0,477199.0
04/23/1997,9.56,9.66,9.41,9.66,0.06,0.0,351600.0
04/22/1997,9.5,9.66,9.5,9.59,0.09,0.0,117200.0
04/21/1997,9.38,9.59,9.38,9.5,0.13,0.0,122000.0
04/18/1997,9.06,9.41,9.06,9.38,0.25,0.0,90400.0
04/17/1997,9.06,9.16,9.03,9.13,0.09,0.0,73600.0
04/16/1997,9.03,9.03,8.78,9.03,0.0,0.0,465999.0
04/15/1997,9.22,9.25,9.0,9.03,-0.22,0.0,598000.0
04/14/1997,9.41,9.41,9.22,9.25,-0.13,0.0,30800.0
04/11/1997,9.41,9.41,9.34,9.38,-0.03,0.0,17200.0
04/10/1997,9.47,9.47,9.34,9.41,-0.06,0.0,41200.0
04/09/1997,9.5,9.56,9.44,9.47,-0.06,0.0,37600.0
04/08/1997,9.56,9.56,9.53,9.53,0.0,0.0,46400.0
04/07/1997,9.53,9.56,9.53,9.53,0.03,0.0,225200.0
04/04/1997,9.44,9.56,9.44,9.5,0.03,0.0,71600.0
04/03/1997,9.47,9.5,9.31,9.47,-0.03,0.0,109200.0
04/02/1997,9.53,9.56,9.47,9.5,-0.06,0.0,14800.0
04/01/1997,9.59,9.63,9.53,9.56,0.0,0.0,166400.0
03/31/1997,9.66,9.66,9.56,9.56,-0.09,0.0,176400.0
03/27/1997,9.81,9.81,9.66,9.66,-0.16,0.0,100800.0
03/26/1997,9.75,9.81,9.75,9.81,0.03,0.0,208800.0
03/25/1997,9.75,9.81,9.72,9.78,0.06,0.0,290800.0
03/24/1997,9.97,9.97,9.66,9.72,-0.28,0.0,72400.0
03/21/1997,9.97,10.03,9.97,10.0,0.03,0.0,66000.0
03/20/1997,9.88,9.97,9.66,9.97,0.09,0.0,111200.0
03/19/1997,9.56,9.88,9.53,9.88,0.28,0.0,46800.0
03/18/1997,9.63,9.69,9.59,9.59,-0.03,0.0,148000.0
03/17/1997,9.59,9.66,9.38,9.63,0.06,0.0,80800.0
03/14/1997,9.66,9.69,9.47,9.56,-0.09,0.0,69200.0
03/13/1997,9.81,9.81,9.66,9.66,-0.16,0.0,107200.0
03/12/1997,9.97,10.0,9.78,9.81,-0.22,0.0,101200.0
03/11/1997,10.0,10.03,9.94,10.03,0.03,0.0,72400.0
03/10/1997,10.0,10.03,9.97,10.0,0.0,0.0,85200.0
03/07/1997,10.03,10.03,10.0,10.0,-0.03,0.0,170000.0
03/06/1997,10.09,10.13,9.97,10.03,-0.09,0.0,81600.0
03/05/1997,10.06,10.16,10.06,10.13,0.06,0.0,182800.0
03/04/1997,9.97,10.09,9.97,10.06,0.09,0.0,89200.0
03/03/1997,9.91,10.0,9.91,9.97,0.03,0.0,205600.0
02/28/1997,9.81,9.94,9.81,9.94,0.13,0.0,257600.0
02/27/1997,9.66,9.81,9.66,9.81,0.13,0.0,116400.0
02/26/1997,9.66,9.69,9.53,9.69,0.03,0.0,159200.0
02/25/1997,9.56,9.66,9.56,9.66,0.03,0.0,90000.0
02/24/1997,9.56,9.72,9.53,9.63,0.03,0.0,118400.0
02/21/1997,9.25,9.72,9.25,9.59,0.41,0.0,400000.0
02/20/1997,8.78,9.28,8.78,9.19,0.41,0.0,556800.0
02/19/1997,8.75,8.81,8.75,8.78,0.03,0.0,83600.0
02/18/1997,8.84,8.88,8.72,8.75,-0.19,0.0,138800.0
02/14/1997,8.94,9.06,8.88,8.94,-0.06,0.0,153200.0
02/13/1997,9.06,9.13,9.0,9.0,-0.03,0.0,273600.0
02/12/1997,8.84,9.16,8.81,9.03,0.22,0.0,126800.0
02/11/1997,8.84,8.84,8.78,8.81,-0.03,0.0,39600.0
02/10/1997,8.75,8.84,8.75,8.84,0.06,0.0,195600.0
02/07/1997,8.81,8.84,8.75,8.78,0.0,0.0,39200.0
02/06/1997,8.78,8.84,8.78,8.78,0.0,0.0,84000.0
02/05/1997,8.81,8.88,8.72,8.78,0.0,0.0,120800.0
02/04/1997,8.78,8.97,8.72,8.78,0.0,0.0,180400.0
02/03/1997,8.75,8.97,8.69,8.78,0.41,0.0,340800.0
01/31/1997,8.28,8.38,8.22,8.38,0.06,0.0,153200.0
01/30/1997,8.19,8.34,8.19,8.31,0.09,0.0,458400.0
01/29/1997,8.22,8.31,8.19,8.22,-0.03,0.0,126400.0
01/28/1997,8.44,8.47,8.25,8.25,-0.19,0.0,119600.0
01/27/1997,8.47,8.47,8.44,8.44,-0.06,0.0,42400.0
01/24/1997,8.47,8.5,8.44,8.5,0.03,0.0,61600.0
01/23/1997,8.41,8.53,8.41,8.47,0.06,0.0,40000.0
01/22/1997,8.53,8.53,8.41,8.41,0.0,0.0,141200.0
01/21/1997,8.63,8.66,8.41,8.41,-0.19,0.0,335200.0
01/20/1997,8.69,8.72,8.59,8.59,-0.16,0.0,227200.0
01/17/1997,8.63,8.78,8.63,8.75,0.06,0.0,374000.0
01/16/1997,8.75,8.75,8.69,8.69,-0.03,0.0,143200.0
01/15/1997,8.75,8.75,8.63,8.72,0.0,0.0,104000.0
01/14/1997,8.88,8.88,8.72,8.72,-0.16,0.0,107600.0
01/13/1997,8.88,8.91,8.84,8.88,-0.03,0.0,50400.0
01/10/1997,8.94,9.0,8.84,8.91,-0.06,0.0,92000.0
01/09/1997,8.97,8.97,8.94,8.97,0.06,0.0,41200.0
01/08/1997,8.91,8.94,8.88,8.91,-0.03,0.0,25200.0
01/07/1997,8.94,8.97,8.88,8.94,-0.03,0.0,64800.0
01/06/1997,8.75,8.97,8.75,8.97,0.28,0.0,354000.0
01/03/1997,8.75,8.81,8.69,8.69,-0.06,0.0,54000.0
01/02/1997,8.78,8.78,8.72,8.75,0.0,0.0,287200.0
12/31/1996,8.59,8.84,8.59,8.81,0.25,0.0,256000.0
12/30/1996,8.41,8.56,8.41,8.56,0.06,0.0,68800.0
12/27/1996,8.44,8.5,8.44,8.5,0.0,0.0,71200.0
12/26/1996,8.38,8.5,8.38,8.5,0.13,0.0,53200.0
12/24/1996,8.41,8.41,8.38,8.38,0.0,0.0,22000.0
12/23/1996,8.28,8.41,8.25,8.38,0.09,0.0,153600.0
12/20/1996,8.31,8.31,8.25,8.28,0.03,0.0,182400.0
12/19/1996,8.28,8.31,8.25,8.25,0.0,0.0,251600.0
12/18/1996,8.25,8.25,8.19,8.25,0.0,0.0,524400.0
12/17/1996,8.25,8.31,8.25,8.25,0.03,0.0,148400.0
12/16/1996,8.25,8.34,8.22,8.22,-0.03,0.0,100000.0
12/13/1996,8.53,8.56,8.22,8.25,-0.34,0.0,54400.0
12/12/1996,8.59,8.63,8.53,8.59,-0.03,0.0,84400.0
12/11/1996,8.38,8.63,8.31,8.63,0.13,0.0,142800.0
12/10/1996,8.63,8.63,8.5,8.5,-0.13,0.0,95600.0
12/09/1996,8.66,8.75,8.63,8.63,-0.03,0.0,150000.0
12/06/1996,8.69,8.69,8.56,8.66,0.0,0.0,75200.0
12/05/1996,8.69,8.72,8.66,8.66,0.0,0.0,50400.0
12/04/1996,8.69,8.72,8.66,8.66,-0.06,0.0,65600.0
12/03/1996,8.91,8.91,8.59,8.72,-0.13,0.0,241200.0
12/02/1996,8.66,8.91,8.63,8.84,0.22,0.0,64000.0
11/29/1996,8.81,8.81,8.63,8.63,-0.19,0.0,30400.0
11/27/1996,8.78,8.84,8.66,8.81,-0.06,0.0,161200.0
11/26/1996,8.78,8.88,8.78,8.88,0.13,0.0,84800.0
11/25/1996,8.56,8.78,8.56,8.75,0.13,0.0,486799.0
11/22/1996,8.91,8.94,8.63,8.63,-0.25,0.0,82800.0
11/21/1996,8.94,9.03,8.84,8.88,-0.03,0.0,177600.0
11/20/1996,8.84,8.94,8.84,8.91,0.06,0.0,219200.0
11/19/1996,8.69,8.84,8.69,8.84,0.16,0.0,24000.0
11/18/1996,8.69,8.78,8.66,8.69,-0.03,0.0,224800.0
11/15/1996,8.75,8.81,8.72,8.72,0.03,0.0,95600.0
11/14/1996,8.72,8.72,8.63,8.69,0.0,0.0,40000.0
11/13/1996,8.69,8.72,8.66,8.69,-0.03,0.0,27200.0
11/12/1996,8.56,8.75,8.56,8.72,0.16,0.0,72400.0
11/11/1996,8.53,8.56,8.53,8.56,0.0,0.0,288400.0
11/08/1996,8.59,8.63,8.53,8.56,-0.06,0.0,188800.0
11/07/1996,8.63,8.69,8.59,8.63,0.0,0.0,70400.0
11/06/1996,8.47,8.63,8.47,8.63,0.25,0.0,85200.0
11/05/1996,8.31,8.38,8.28,8.38,0.13,0.0,119200.0
11/04/1996,8.16,8.28,8.16,8.25,0.09,0.0,126000.0
11/01/1996,8.0,8.19,8.0,8.16,0.09,0.0,118000.0
10/31/1996,7.97,8.06,7.97,8.06,0.06,0.0,47600.0
10/30/1996,7.97,8.0,7.97,8.0,0.03,0.0,99600.0
10/29/1996,7.94,7.97,7.84,7.97,0.0,0.0,34400.0
10/28/1996,7.94,7.97,7.88,7.97,0.0,0.0,135600.0
10/25/1996,7.84,8.03,7.81,7.97,0.19,0.0,150400.0
10/24/1996,7.81,7.81,7.63,7.78,0.0,0.0,174800.0
10/23/1996,7.81,7.81,7.75,7.78,0.0,0.0,17600.0
10/22/1996,7.81,7.81,7.78,7.78,-0.03,0.0,22800.0
10/21/1996,7.94,7.97,7.78,7.81,-0.13,0.0,126000.0
10/18/1996,7.97,7.97,7.91,7.94,0.0,0.0,66800.0
10/17/1996,8.0,8.0,7.88,7.94,-0.06,0.0,93600.0
10/16/1996,8.03,8.03,8.0,8.0,-0.03,0.0,44000.0
10/15/1996,8.13,8.16,8.03,8.03,-0.13,0.0,127600.0
10/14/1996,8.0,8.16,7.94,8.16,0.13,0.0,76400.0
10/11/1996,7.84,8.03,7.84,8.03,0.19,0.0,147200.0
10/10/1996,7.81,7.84,7.81,7.84,0.0,0.0,7200.0
10/09/1996,7.91,7.91,7.81,7.84,-0.09,0.0,348800.0
10/08/1996,7.97,7.97,7.91,7.94,-0.06,0.0,38400.0
10/07/1996,8.16,8.19,8.0,8.0,-0.16,0.0,152800.0
10/04/1996,8.13,8.16,8.13,8.16,0.03,0.0,69200.0
10/03/1996,8.25,8.25,8.13,8.13,-0.19,0.0,228000.0
10/02/1996,8.19,8.41,8.13,8.31,0.25,0.0,119200.0
10/01/1996,8.06,8.13,8.06,8.06,0.03,0.0,142800.0
09/30/1996,8.06,8.06,8.03,8.03,-0.03,0.0,33200.0
09/27/1996,7.94,8.06,7.94,8.06,0.16,0.0,128400.0
09/26/1996,8.19,8.19,7.91,7.91,-0.28,0.0,206000.0
09/25/1996,8.13,8.19,8.13,8.19,0.06,0.0,105600.0
09/24/1996,8.09,8.16,8.06,8.13,0.03,0.0,346800.0
09/23/1996,8.13,8.13,8.06,8.09,0.0,0.0,76000.0
09/20/1996,8.16,8.16,8.06,8.09,-0.06,0.0,52400.0
09/19/1996,8.34,8.38,8.16,8.16,-0.22,0.0,76000.0
09/18/1996,8.38,8.5,8.38,8.38,-0.03,0.0,128400.0
09/17/1996,8.38,8.44,8.38,8.41,0.0,0.0,146000.0
09/16/1996,8.41,8.41,8.38,8.41,0.0,0.0,52800.0
09/13/1996,8.34,8.44,8.34,8.41,0.06,0.0,212800.0
09/12/1996,8.22,8.38,8.19,8.34,0.13,0.0,164400.0
09/11/1996,8.31,8.31,8.19,8.22,-0.06,0.0,170400.0
09/10/1996,8.75,8.75,8.25,8.28,-0.5,0.0,316800.0
09/09/1996,8.75,8.81,8.75,8.78,0.06,0.0,24800.0
09/06/1996,8.72,8.75,8.72,8.72,0.0,0.0,54000.0
09/05/1996,8.69,8.75,8.66,8.72,0.03,0.0,21600.0
09/04/1996,8.63,8.69,8.63,8.69,0.06,0.0,22000.0
09/03/1996,8.75,8.75,8.59,8.63,-0.09,0.0,108800.0
08/30/1996,8.72,8.72,8.72,8.72,0.0,0.0,7200.0
08/29/1996,8.69,8.75,8.69,8.72,0.03,0.0,16800.0
08/28/1996,8.66,8.69,8.66,8.69,0.06,0.0,6000.0
08/27/1996,8.75,8.81,8.63,8.63,-0.13,0.0,42800.0
08/26/1996,8.75,8.75,8.72,8.75,0.03,0.0,5200.0
08/23/1996,8.75,8.75,8.72,8.72,-0.03,0.0,70400.0
08/22/1996,8.75,8.75,8.72,8.75,0.0,0.0,26800.0
08/21/1996,9.0,9.0,8.75,8.75,-0.25,0.0,52000.0
08/20/1996,9.19,9.19,9.0,9.0,-0.19,0.0,38000.0
08/19/1996,9.16,9.28,9.13,9.19,0.06,0.0,46400.0
08/16/1996,9.06,9.13,9.06,9.13,0.03,0.0,100400.0
08/15/1996,9.0,9.09,9.0,9.09,0.09,0.0,4400.0
08/14/1996,8.94,9.0,8.94,9.0,0.06,0.0,6800.0
08/13/1996,8.97,8.97,8.94,8.94,-0.06,0.0,49200.0
08/12/1996,9.0,9.0,9.0,9.0,0.0,0.0,8400.0
08/09/1996,8.66,9.16,8.66,9.0,0.34,0.0,1068000.0
08/08/1996,8.66,8.66,8.66,8.66,0.03,0.0,8000.0
08/07/1996,8.59,8.69,8.59,8.63,0.03,0.0,50800.0
08/06/1996,8.53,8.59,8.53,8.59,0.09,0.0,95600.0
08/05/1996,8.56,8.59,8.5,8.5,-0.09,0.0,80800.0
08/02/1996,8.53,8.66,8.53,8.59,0.09,0.0,150000.0
08/01/1996,8.59,8.69,8.47,8.5,0.19,0.0,153200.0
07/31/1996,8.16,8.34,8.16,8.31,0.22,0.0,65600.0
07/30/1996,8.13,8.13,8.09,8.09,-0.03,0.0,84800.0
07/29/1996,7.94,8.13,7.94,8.13,0.16,0.0,51200.0
07/26/1996,8.0,8.0,7.94,7.97,0.0,0.0,174800.0
07/25/1996,8.03,8.03,7.94,7.97,-0.03,0.0,196000.0
07/24/1996,8.06,8.06,8.0,8.0,-0.09,0.0,33200.0
07/23/1996,8.16,8.16,8.06,8.09,-0.09,0.0,90000.0
07/22/1996,8.22,8.22,8.16,8.19,-0.03,0.0,59600.0
07/19/1996,8.22,8.25,8.22,8.22,0.0,0.0,35600.0
07/18/1996,8.22,8.28,8.22,8.22,-0.03,0.0,40400.0
07/17/1996,8.25,8.25,8.16,8.25,0.38,0.0,263200.0
07/16/1996,8.19,8.19,7.88,7.88,-0.41,0.0,280800.0
07/15/1996,8.25,8.31,8.22,8.28,-0.03,0.0,39200.0
07/12/1996,8.13,8.31,8.13,8.31,0.16,0.0,117600.0
07/11/1996,8.28,8.31,8.13,8.16,-0.13,0.0,111600.0
07/10/1996,8.31,8.31,8.25,8.28,-0.03,0.0,39200.0
07/09/1996,8.38,8.38,8.31,8.31,-0.09,0.0,157200.0
07/08/1996,8.5,8.5,8.38,8.41,-0.09,0.0,109600.0
07/05/1996,8.53,8.63,8.44,8.5,-0.13,0.0,146400.0
07/03/1996,8.38,8.81,8.38,8.63,0.25,0.0,622000.0
07/02/1996,7.88,8.38,7.88,8.38,0.5,0.0,286000.0
07/01/1996,7.59,7.88,7.59,7.88,0.31,0.0,458400.0
06/28/1996,7.59,7.59,7.25,7.56,-0.03,0.0,661600.0
06/27/1996,7.59,7.63,7.56,7.59,-0.06,0.0,72800.0
06/26/1996,7.66,7.66,7.56,7.66,0.0,0.0,201600.0
06/25/1996,7.84,7.84,7.63,7.66,-0.16,0.0,74000.0
06/24/1996,8.0,8.0,7.78,7.81,-0.16,0.0,200400.0
06/21/1996,8.13,8.13,7.97,7.97,-0.13,0.0,610800.0
06/20/1996,7.91,8.09,7.91,8.09,0.22,0.0,511200.0
06/19/1996,8.63,8.66,7.88,7.88,-0.81,0.0,858800.0
06/18/1996,9.13,9.13,8.59,8.69,-0.41,0.0,208400.0
06/17/1996,9.03,9.16,8.88,9.09,-0.84,0.0,1607200.0
06/14/1996,9.88,9.94,9.84,9.94,0.09,0.0,127200.0
06/13/1996,9.97,9.97,9.84,9.84,-0.09,0.0,34800.0
06/12/1996,10.0,10.0,9.91,9.94,-0.06,0.0,42000.0
06/11/1996,10.25,10.25,10.0,10.0,-0.25,0.0,115600.0
06/10/1996,10.38,10.38,10.19,10.25,-0.16,0.0,170000.0
06/07/1996,10.47,10.47,10.41,10.41,-0.06,0.0,19600.0
06/06/1996,10.47,10.5,10.44,10.47,-0.03,0.0,98400.0
06/05/1996,10.53,10.53,10.47,10.5,-0.03,0.0,170000.0
06/04/1996,10.47,10.53,10.41,10.53,0.06,0.0,56400.0
06/03/1996,10.56,10.59,10.47,10.47,-0.13,0.0,141600.0
05/31/1996,10.44,10.59,10.41,10.59,0.22,0.0,162000.0
05/30/1996,10.31,10.38,10.31,10.38,0.06,0.0,200400.0
05/29/1996,10.28,10.31,10.22,10.31,0.03,0.0,63600.0
05/28/1996,9.97,10.34,9.97,10.28,0.31,0.0,355200.0
05/24/1996,9.88,9.97,9.84,9.97,0.09,0.0,221200.0
05/23/1996,9.75,9.94,9.75,9.88,0.13,0.0,417200.0
05/22/1996,9.72,9.84,9.72,9.75,0.03,0.0,95600.0
05/21/1996,9.53,9.72,9.53,9.72,0.22,0.0,206000.0
05/20/1996,9.38,9.5,9.38,9.5,0.09,0.0,61200.0
05/17/1996,9.5,9.5,9.34,9.41,-0.09,0.0,123200.0
05/16/1996,9.56,9.56,9.44,9.5,-0.06,0.0,64400.0
05/15/1996,9.59,9.59,9.53,9.56,0.0,0.0,119200.0
05/14/1996,9.56,9.59,9.53,9.56,0.03,0.0,38800.0
05/13/1996,9.56,9.63,9.53,9.53,-0.03,0.0,133600.0
05/10/1996,9.59,9.59,9.56,9.56,0.0,0.0,81200.0
05/09/1996,9.63,9.66,9.56,9.56,-0.06,0.0,98400.0
05/08/1996,9.59,9.63,9.5,9.63,0.0,0.0,670400.0
05/07/1996,9.59,9.63,9.59,9.63,0.03,0.0,52800.0
05/06/1996,9.59,9.66,9.56,9.59,0.0,0.0,465200.0
05/03/1996,9.56,9.59,9.53,9.59,0.06,0.0,121600.0
05/02/1996,9.53,9.66,9.5,9.53,0.0,0.0,448800.0
05/01/1996,9.41,9.63,9.41,9.53,0.13,0.0,524800.0
04/30/1996,9.28,9.41,9.28,9.41,0.16,0.0,550400.0
04/29/1996,9.34,9.41,9.16,9.25,-0.13,0.0,344000.0
04/26/1996,9.63,9.63,9.38,9.38,-0.25,0.0,151200.0
04/25/1996,9.78,9.78,9.59,9.63,-0.19,0.0,42000.0
04/24/1996,9.84,9.94,9.81,9.81,-0.03,0.0,89600.0
04/23/1996,9.91,9.91,9.84,9.84,-0.06,0.0,96800.0
04/22/1996,9.94,9.94,9.91,9.91,-0.03,0.0,63600.0
04/19/1996,9.97,9.97,9.91,9.94,0.03,0.0,224400.0
04/18/1996,9.94,9.97,9.88,9.91,0.0,0.0,115600.0
04/17/1996,10.25,10.25,9.81,9.91,-0.34,0.0,376400.0
04/16/1996,10.25,10.25,10.22,10.25,0.0,0.0,70400.0
04/15/1996,10.28,10.34,10.22,10.25,0.0,0.0,324800.0
04/12/1996,10.63,10.63,10.13,10.25,-0.38,0.0,725200.0
04/11/1996,10.66,10.66,10.59,10.63,0.0,0.0,49600.0
04/10/1996,10.72,10.75,10.63,10.63,-0.03,0.0,525200.0
04/09/1996,10.47,10.66,10.44,10.66,0.22,0.0,268000.0
04/08/1996,10.59,10.59,10.44,10.44,-0.22,0.0,154800.0
04/04/1996,10.72,10.72,10.66,10.66,-0.03,0.0,124400.0
04/03/1996,10.72,10.75,10.69,10.69,-0.03,0.0,646800.0
04/02/1996,10.63,10.78,10.63,10.72,0.06,0.0,416400.0
04/01/1996,10.38,10.66,10.38,10.66,0.28,0.0,230400.0
03/29/1996,10.19,10.47,10.19,10.38,0.16,0.0,145200.0
03/28/1996,10.09,10.22,10.06,10.22,0.16,0.0,280000.0
03/27/1996,10.03,10.13,10.03,10.06,0.0,0.0,248800.0
03/26/1996,9.72,10.06,9.69,10.06,0.34,0.0,82800.0
03/25/1996,9.41,9.72,9.41,9.72,0.31,0.0,201200.0
03/22/1996,9.34,9.41,9.31,9.41,0.03,0.0,235200.0
03/21/1996,9.38,9.38,9.34,9.38,0.0,0.0,115200.0
03/20/1996,9.34,9.38,9.31,9.38,0.0,0.0,92800.0
03/19/1996,9.47,9.47,9.34,9.38,-0.09,0.0,280400.0
03/18/1996,9.53,9.53,9.47,9.47,-0.03,0.0,52400.0
03/15/1996,9.38,9.5,9.38,9.5,0.13,0.0,230400.0
03/14/1996,9.63,9.63,9.38,9.38,-0.25,0.0,301200.0
03/13/1996,9.72,9.72,9.63,9.63,-0.09,0.0,56000.0
03/12/1996,9.63,9.72,9.63,9.72,0.09,0.0,106800.0
03/11/1996,9.28,9.63,9.28,9.63,0.34,0.0,70000.0
03/08/1996,9.31,9.41,9.19,9.28,-0.09,0.0,58400.0
03/07/1996,9.28,9.38,9.28,9.38,0.09,0.0,331200.0
03/06/1996,9.28,9.31,9.25,9.28,-0.06,0.0,166000.0
03/05/1996,9.41,9.41,9.31,9.34,-0.03,0.0,90000.0
03/04/1996,9.34,9.44,9.31,9.38,0.06,0.0,160800.0
03/01/1996,9.34,9.47,9.31,9.31,0.19,0.0,562000.0
02/29/1996,9.06,9.13,9.06,9.13,0.0,0.0,130400.0
02/28/1996,9.22,9.22,9.13,9.13,-0.09,0.0,138400.0
02/27/1996,9.25,9.25,9.22,9.22,-0.03,0.0,160400.0
02/26/1996,9.34,9.38,9.22,9.25,-0.16,0.0,148800.0
02/23/1996,9.38,9.47,9.34,9.41,0.06,0.0,257600.0
02/22/1996,9.25,9.38,9.25,9.34,0.09,0.0,119600.0
02/21/1996,9.22,9.25,9.22,9.25,0.06,0.0,11200.0
02/20/1996,9.22,9.25,9.19,9.19,-0.09,0.0,82400.0
02/16/1996,9.22,9.31,9.22,9.28,0.03,0.0,100400.0
02/15/1996,9.34,9.41,9.25,9.25,-0.06,0.0,102400.0
02/14/1996,9.25,9.38,9.25,9.31,0.06,0.0,76000.0
02/13/1996,9.34,9.34,9.25,9.25,-0.06,0.0,70000.0
02/12/1996,9.38,9.41,9.31,9.31,-0.03,0.0,83200.0
02/09/1996,9.28,9.34,9.28,9.34,0.03,0.0,23600.0
02/08/1996,9.38,9.38,9.31,9.31,-0.06,0.0,62800.0
02/07/1996,9.34,9.41,9.31,9.38,0.03,0.0,42000.0
02/06/1996,9.38,9.38,9.31,9.34,-0.03,0.0,96000.0
02/05/1996,9.34,9.41,9.31,9.38,0.0,0.0,46400.0
02/02/1996,9.38,9.41,9.38,9.38,0.06,0.0,98800.0
02/01/1996,9.25,9.34,9.25,9.31,0.0,0.0,178400.0
01/31/1996,9.34,9.38,9.25,9.31,-0.06,0.0,154800.0
01/30/1996,9.28,9.38,9.28,9.38,0.13,0.0,29600.0
01/29/1996,9.22,9.31,9.19,9.25,0.0,0.0,260800.0
01/26/1996,9.19,9.25,9.16,9.25,0.06,0.0,46400.0
01/25/1996,9.16,9.19,9.06,9.19,0.06,0.0,94400.0
01/24/1996,8.94,9.19,8.88,9.13,0.13,0.0,147200.0
01/23/1996,8.88,9.06,8.88,9.0,0.09,0.0,70400.0
01/22/1996,8.75,8.94,8.75,8.91,0.16,0.0,215200.0
01/19/1996,8.75,8.75,8.72,8.75,0.0,0.0,50000.0
01/18/1996,8.78,8.81,8.72,8.75,0.0,0.0,100800.0
01/17/1996,8.75,8.75,8.69,8.75,0.0,0.0,63600.0
01/16/1996,8.88,8.88,8.72,8.75,-0.13,0.0,65600.0
01/15/1996,8.81,8.91,8.78,8.88,0.0,0.0,84000.0
01/12/1996,8.97,9.0,8.81,8.88,-0.09,0.0,82000.0
01/11/1996,8.94,9.03,8.94,8.97,0.03,0.0,77200.0
01/10/1996,9.03,9.03,8.94,8.94,-0.03,0.0,63200.0
01/09/1996,9.19,9.19,8.97,8.97,-0.19,0.0,50800.0
01/08/1996,9.19,9.19,9.16,9.16,-0.06,0.0,31200.0
01/05/1996,9.16,9.25,9.13,9.22,0.13,0.0,159600.0
01/04/1996,9.28,9.31,9.09,9.09,-0.22,0.0,93600.0
01/03/1996,9.28,9.31,9.28,9.31,0.0,0.0,63600.0
01/02/1996,9.28,9.31,9.25,9.31,0.0,0.0,60400.0
12/29/1995,9.28,9.34,9.28,9.34,0.06,0.0,9200.0
12/28/1995,9.22,9.31,9.22,9.28,0.03,0.0,120400.0
12/27/1995,9.19,9.25,9.13,9.25,0.06,0.0,181600.0
12/26/1995,9.0,9.19,9.0,9.19,0.19,0.0,212800.0
12/22/1995,8.88,9.0,8.84,9.0,0.13,0.0,126800.0
12/21/1995,8.88,8.97,8.78,8.88,-0.03,0.0,82000.0
12/20/1995,8.91,8.91,8.84,8.91,0.0,0.0,126400.0
12/19/1995,8.84,8.91,8.84,8.91,0.06,0.0,55600.0
12/18/1995,9.06,9.06,8.84,8.84,-0.22,0.0,108800.0
12/15/1995,9.25,9.25,9.03,9.06,-0.13,0.0,131200.0
12/14/1995,9.19,9.25,9.13,9.19,-0.06,0.0,155200.0
12/13/1995,9.34,9.34,9.22,9.25,-0.03,0.0,131200.0
12/12/1995,9.41,9.47,9.28,9.28,-0.16,0.0,50000.0
12/11/1995,9.41,9.47,9.38,9.44,0.03,0.0,23600.0
12/08/1995,9.47,9.47,9.31,9.41,0.03,0.0,152800.0
12/07/1995,9.34,9.41,9.31,9.38,0.0,0.0,186000.0
12/06/1995,9.38,9.38,9.25,9.38,0.0,0.0,72000.0
12/05/1995,9.41,9.56,9.38,9.38,0.0,0.0,97600.0
12/04/1995,9.16,9.38,9.16,9.38,0.25,0.0,128400.0
12/01/1995,9.0,9.13,9.0,9.13,0.13,0.0,100800.0
11/30/1995,9.0,9.0,8.94,9.0,0.06,0.0,15600.0
11/29/1995,8.75,8.97,8.75,8.94,0.19,0.0,114000.0
11/28/1995,8.75,8.78,8.75,8.75,0.0,0.0,95600.0
11/27/1995,8.72,8.75,8.72,8.75,0.0,0.0,17200.0
11/24/1995,8.72,8.75,8.72,8.75,0.09,0.0,8000.0
11/22/1995,8.75,8.75,8.59,8.66,-0.09,0.0,45200.0
11/21/1995,8.75,8.78,8.69,8.75,0.0,0.0,148400.0
11/20/1995,8.81,8.81,8.75,8.75,-0.03,0.0,156000.0
11/17/1995,8.81,8.81,8.75,8.78,0.03,0.0,219200.0
11/16/1995,8.75,8.81,8.75,8.75,0.0,0.0,136800.0
11/15/1995,8.75,8.78,8.72,8.75,0.03,0.0,171600.0
11/14/1995,8.75,8.78,8.72,8.72,0.0,0.0,356000.0
11/13/1995,8.75,8.75,8.69,8.72,0.0,0.0,481600.0
11/10/1995,8.78,8.78,8.72,8.72,-0.06,0.0,50800.0
11/09/1995,8.78,8.84,8.78,8.78,0.0,0.0,118800.0
11/08/1995,8.84,8.84,8.72,8.78,-0.06,0.0,65200.0
11/07/1995,8.84,8.88,8.84,8.84,0.03,0.0,49600.0
11/06/1995,8.84,8.84,8.81,8.81,-0.03,0.0,201600.0
11/03/1995,8.75,8.84,8.75,8.84,0.09,0.0,195200.0
11/02/1995,8.59,8.75,8.59,8.75,0.22,0.0,94000.0
11/01/1995,8.53,8.56,8.5,8.53,-0.03,0.0,216800.0
10/31/1995,8.56,8.63,8.56,8.56,0.03,0.0,79200.0
10/30/1995,8.5,8.59,8.5,8.53,0.03,0.0,444000.0
10/27/1995,8.16,8.56,8.16,8.5,0.41,0.0,229600.0
10/26/1995,8.25,8.25,8.06,8.09,-0.09,0.0,267600.0
10/25/1995,8.38,8.38,8.19,8.19,-0.16,0.0,108400.0
10/24/1995,8.38,8.44,8.34,8.34,-0.03,0.0,14800.0
10/23/1995,8.38,8.44,8.38,8.38,0.03,0.0,22400.0
10/20/1995,8.44,8.44,8.34,8.34,-0.06,0.0,16400.0
10/19/1995,8.44,8.47,8.41,8.41,-0.06,0.0,16000.0
10/18/1995,8.41,8.53,8.41,8.47,0.13,0.0,52000.0
10/17/1995,8.34,8.41,8.31,8.34,-0.03,0.0,57600.0
10/16/1995,8.25,8.44,8.25,8.38,0.13,0.0,75600.0
10/13/1995,8.0,8.25,8.0,8.25,0.31,0.0,74000.0
10/12/1995,8.0,8.0,7.94,7.94,-0.03,0.0,15600.0
10/11/1995,7.91,7.97,7.91,7.97,0.06,0.0,316000.0
10/10/1995,7.78,7.91,7.78,7.91,0.06,0.0,52000.0
10/09/1995,7.91,7.91,7.84,7.84,-0.06,0.0,17600.0
10/06/1995,7.94,7.97,7.91,7.91,-0.09,0.0,47600.0
10/05/1995,8.0,8.0,7.97,8.0,0.03,0.0,16400.0
10/04/1995,8.03,8.03,7.97,7.97,-0.03,0.0,45200.0
10/03/1995,8.13,8.13,7.97,8.0,-0.13,0.0,73200.0
10/02/1995,8.25,8.25,8.09,8.13,-0.16,0.0,92800.0
09/29/1995,8.38,8.44,8.28,8.28,-0.09,0.0,53200.0
09/28/1995,8.34,8.41,8.34,8.38,0.06,0.0,30400.0
09/27/1995,8.41,8.44,8.31,8.31,-0.06,0.0,16000.0
09/26/1995,8.38,8.38,8.34,8.38,-0.06,0.0,22000.0
09/25/1995,8.44,8.47,8.38,8.44,0.03,0.0,68400.0
09/22/1995,8.44,8.44,8.38,8.41,-0.03,0.0,19200.0
09/21/1995,8.5,8.56,8.44,8.44,-0.06,0.0,73600.0
09/20/1995,8.34,8.5,8.34,8.5,0.09,0.0,46800.0
09/19/1995,8.41,8.47,8.41,8.41,0.0,0.0,27600.0
09/18/1995,8.44,8.47,8.41,8.41,-0.06,0.0,108000.0
09/15/1995,8.38,8.47,8.38,8.47,0.06,0.0,37200.0
09/14/1995,8.44,8.44,8.38,8.41,0.0,0.0,57200.0
09/13/1995,8.34,8.44,8.34,8.41,0.03,0.0,71600.0
09/12/1995,8.38,8.38,8.34,8.38,-0.03,0.0,34400.0
09/11/1995,8.34,8.41,8.25,8.41,0.06,0.0,32800.0
09/08/1995,8.25,8.34,8.25,8.34,0.09,0.0,65600.0
09/07/1995,8.09,8.25,8.09,8.25,0.16,0.0,140800.0
09/06/1995,7.91,8.09,7.91,8.09,0.16,0.0,159200.0
09/05/1995,7.91,7.94,7.91,7.94,-0.03,0.0,48000.0
09/01/1995,7.94,7.97,7.94,7.97,0.03,0.0,89200.0
08/31/1995,7.91,7.94,7.91,7.94,0.09,0.0,18800.0
08/30/1995,7.91,7.91,7.84,7.84,-0.06,0.0,11200.0
08/29/1995,8.16,8.16,7.91,7.91,-0.22,0.0,124000.0
08/28/1995,8.13,8.19,8.13,8.13,0.03,0.0,111600.0
08/25/1995,8.13,8.13,8.09,8.09,0.0,0.0,304400.0
08/24/1995,8.13,8.13,8.09,8.09,-0.06,0.0,84400.0
08/23/1995,8.19,8.19,8.13,8.16,-0.03,0.0,68800.0
08/22/1995,8.22,8.22,8.19,8.19,-0.06,0.0,34400.0
08/21/1995,8.13,8.25,8.13,8.25,0.13,0.0,70000.0
08/18/1995,8.09,8.13,8.06,8.13,0.06,0.0,108800.0
08/17/1995,8.09,8.09,8.06,8.06,-0.03,0.0,72000.0
08/16/1995,8.31,8.31,8.03,8.09,-0.25,0.0,257200.0
08/15/1995,8.28,8.34,8.22,8.34,0.09,0.0,52000.0
08/14/1995,8.19,8.31,8.19,8.25,0.06,0.0,126800.0
08/11/1995,8.22,8.28,8.13,8.19,-0.09,0.0,220000.0
08/10/1995,8.22,8.28,8.22,8.28,0.09,0.0,36000.0
08/09/1995,8.16,8.22,8.16,8.19,0.03,0.0,14800.0
08/08/1995,8.16,8.19,8.16,8.16,0.03,0.0,138000.0
08/07/1995,8.16,8.25,8.13,8.13,-0.03,0.0,53600.0
08/04/1995,8.13,8.16,8.13,8.16,0.0,0.0,32400.0
08/03/1995,8.25,8.25,8.16,8.16,-0.06,0.0,17200.0
08/02/1995,8.16,8.28,8.16,8.22,0.13,0.0,98800.0
08/01/1995,8.25,8.25,8.09,8.09,-0.22,0.0,66000.0
07/31/1995,8.03,8.31,8.03,8.31,0.34,0.0,214000.0
07/28/1995,7.81,7.97,7.81,7.97,0.13,0.0,186000.0
07/27/1995,7.84,7.88,7.81,7.84,-0.06,0.0,196400.0
07/26/1995,7.97,7.97,7.91,7.91,-0.03,0.0,21600.0
07/25/1995,7.91,8.06,7.88,7.94,0.03,0.0,282400.0
07/24/1995,7.84,7.91,7.84,7.91,0.09,0.0,26400.0
07/21/1995,7.78,7.81,7.78,7.81,0.0,0.0,12800.0
07/20/1995,7.75,7.81,7.75,7.81,0.0,0.0,22000.0
07/19/1995,7.88,7.88,7.75,7.81,-0.06,0.0,35200.0
07/18/1995,7.81,7.91,7.81,7.88,0.09,0.0,33600.0
07/17/1995,7.88,7.94,7.78,7.78,-0.03,0.0,57600.0
07/14/1995,7.88,7.91,7.78,7.81,-0.16,0.0,38800.0
07/13/1995,7.94,8.0,7.94,7.97,0.0,0.0,18400.0
07/12/1995,7.88,8.0,7.88,7.97,0.09,0.0,23600.0
07/11/1995,7.91,7.91,7.81,7.88,-0.03,0.0,49600.0
07/10/1995,7.94,7.97,7.88,7.91,-0.06,0.0,36400.0
07/07/1995,7.97,8.0,7.97,7.97,0.0,0.0,57600.0
07/06/1995,8.0,8.0,7.97,7.97,0.0,0.0,16400.0
07/05/1995,7.97,8.13,7.97,7.97,-0.03,0.0,157600.0
07/03/1995,8.03,8.03,7.97,8.0,-0.03,0.0,32000.0
06/30/1995,7.97,8.03,7.88,8.03,0.09,0.0,74000.0
06/29/1995,7.91,7.97,7.78,7.94,-0.03,0.0,140000.0
06/28/1995,8.0,8.0,7.94,7.97,-0.06,0.0,14000.0
06/27/1995,7.91,8.03,7.91,8.03,0.16,0.0,42400.0
06/26/1995,7.84,7.88,7.84,7.88,0.03,0.0,14800.0
06/23/1995,7.88,7.91,7.84,7.84,-0.03,0.0,76800.0
06/22/1995,7.88,7.94,7.88,7.88,0.0,0.0,38400.0
06/21/1995,7.72,7.88,7.72,7.88,0.19,0.0,97600.0
06/20/1995,7.69,7.81,7.69,7.69,-0.03,0.0,92800.0
06/19/1995,7.91,7.91,7.72,7.72,-0.19,0.0,131600.0
06/16/1995,7.94,7.94,7.88,7.91,0.0,0.0,32800.0
06/15/1995,7.84,7.91,7.84,7.91,0.03,0.0,85200.0
06/14/1995,7.97,7.97,7.84,7.88,-0.13,0.0,44000.0
06/13/1995,7.94,8.0,7.94,8.0,0.09,0.0,25600.0
06/12/1995,7.97,8.0,7.91,7.91,-0.03,0.0,130400.0
06/09/1995,7.91,7.97,7.84,7.94,0.09,0.0,24400.0
06/08/1995,7.75,7.97,7.75,7.84,0.09,0.0,274800.0
06/07/1995,7.72,7.75,7.66,7.75,0.0,0.0,170000.0
06/06/1995,7.75,7.75,7.69,7.75,0.09,0.0,64800.0
06/05/1995,7.66,7.69,7.66,7.66,-0.03,0.0,58000.0
06/02/1995,7.69,7.72,7.66,7.69,0.03,0.0,124400.0
06/01/1995,7.63,7.69,7.63,7.66,0.03,0.0,26400.0
05/31/1995,7.66,7.66,7.63,7.63,0.0,0.0,52000.0
05/30/1995,7.69,7.69,7.63,7.63,-0.06,0.0,21200.0
05/26/1995,7.66,7.69,7.66,7.69,0.03,0.0,110400.0
05/25/1995,7.75,7.75,7.63,7.66,-0.13,0.0,72400.0
05/24/1995,7.81,8.0,7.75,7.78,0.0,0.0,88000.0
05/23/1995,7.59,7.78,7.59,7.78,0.16,0.0,31200.0
05/22/1995,7.56,7.63,7.56,7.63,0.06,0.0,44000.0
05/19/1995,7.53,7.56,7.5,7.56,-0.03,0.0,15600.0
05/18/1995,7.56,7.59,7.56,7.59,0.06,0.0,16400.0
05/17/1995,7.56,7.59,7.53,7.53,-0.06,0.0,90800.0
05/16/1995,7.59,7.59,7.53,7.59,0.03,0.0,24400.0
05/15/1995,7.59,7.59,7.56,7.56,-0.03,0.0,18800.0
05/12/1995,7.47,7.59,7.47,7.59,0.13,0.0,269200.0
05/11/1995,7.53,7.53,7.44,7.47,-0.09,0.0,44800.0
05/10/1995,7.56,7.56,7.56,7.56,0.0,0.0,44000.0
05/09/1995,7.59,7.66,7.56,7.56,-0.03,0.0,123200.0
05/08/1995,7.63,7.63,7.59,7.59,-0.09,0.0,35600.0
05/05/1995,7.69,7.69,7.66,7.69,0.06,0.0,47200.0
05/04/1995,7.53,7.63,7.53,7.63,0.13,0.0,49600.0
05/03/1995,7.53,7.53,7.5,7.5,-0.03,0.0,208000.0
05/02/1995,7.47,7.53,7.44,7.53,0.06,0.0,89600.0
05/01/1995,7.38,7.47,7.38,7.47,0.09,0.0,109200.0
04/28/1995,7.5,7.56,7.38,7.38,-0.16,0.0,30800.0
04/27/1995,7.44,7.53,7.44,7.53,0.28,0.0,102800.0
04/26/1995,7.22,7.31,7.22,7.25,0.0,0.0,124400.0
04/25/1995,7.31,7.31,7.22,7.25,-0.09,0.0,124400.0
04/24/1995,7.41,7.41,7.34,7.34,-0.06,0.0,56800.0
04/21/1995,7.44,7.44,7.38,7.41,0.0,0.0,217200.0
04/20/1995,7.5,7.5,7.38,7.41,-0.09,0.0,34000.0
04/19/1995,7.5,7.53,7.47,7.5,0.0,0.0,221600.0
04/18/1995,7.41,7.5,7.41,7.5,0.06,0.0,233200.0
04/17/1995,7.34,7.44,7.25,7.44,0.06,0.0,114800.0
04/13/1995,7.25,7.38,7.25,7.38,0.16,0.0,77200.0
04/12/1995,7.28,7.41,7.16,7.22,0.0,0.0,145200.0
04/11/1995,7.06,7.22,7.06,7.22,0.16,0.0,33600.0
04/10/1995,7.0,7.09,6.97,7.06,0.09,0.0,64800.0
04/07/1995,7.03,7.03,6.97,6.97,0.0,0.0,16400.0
04/06/1995,7.03,7.03,6.97,6.97,-0.03,0.0,5600.0
04/05/1995,7.0,7.06,7.0,7.0,-0.06,0.0,32000.0
04/04/1995,7.0,7.06,6.97,7.06,0.03,0.0,55600.0
04/03/1995,7.13,7.13,7.0,7.03,-0.13,0.0,40400.0
03/31/1995,7.16,7.19,7.16,7.16,0.0,0.0,63600.0
03/30/1995,7.19,7.22,7.16,7.16,-0.06,0.0,24400.0
03/29/1995,7.22,7.25,7.22,7.22,-0.06,0.0,81200.0
03/28/1995,7.28,7.31,7.25,7.28,0.03,0.0,61600.0
03/27/1995,7.25,7.25,7.19,7.25,0.0,0.0,38400.0
03/24/1995,7.25,7.34,7.25,7.25,0.0,0.0,63600.0
03/23/1995,7.34,7.34,7.19,7.25,-0.06,0.0,165600.0
03/22/1995,7.16,7.31,7.13,7.31,0.19,0.0,66800.0
03/21/1995,7.09,7.13,7.09,7.13,0.06,0.0,49600.0
03/20/1995,6.97,7.06,6.97,7.06,0.09,0.0,184800.0
03/17/1995,6.97,6.97,6.94,6.97,0.03,0.0,122000.0
03/16/1995,7.0,7.0,6.94,6.94,-0.06,0.0,16400.0
03/15/1995,6.94,7.0,6.94,7.0,0.09,0.0,19600.0
03/14/1995,6.84,6.91,6.84,6.91,0.06,0.0,14400.0
03/13/1995,6.84,6.84,6.81,6.84,0.0,0.0,8800.0
03/10/1995,6.75,6.84,6.72,6.84,0.16,0.0,113600.0
03/09/1995,6.69,6.69,6.66,6.69,0.0,0.0,18000.0
03/08/1995,6.59,6.72,6.59,6.69,0.09,0.0,108000.0
03/07/1995,6.69,6.75,6.59,6.59,-0.16,0.0,38000.0
03/06/1995,6.91,6.91,6.69,6.75,-0.19,0.0,89200.0
03/03/1995,6.97,7.0,6.94,6.94,-0.06,0.0,47600.0
03/02/1995,7.06,7.06,6.91,7.0,-0.03,0.0,205600.0
03/01/1995,7.16,7.16,7.03,7.03,-0.09,0.0,21200.0
02/28/1995,7.19,7.19,7.13,7.13,-0.13,0.0,104000.0
02/27/1995,7.16,7.28,7.16,7.25,0.13,0.0,118000.0
02/24/1995,6.91,7.16,6.88,7.13,0.28,0.0,317600.0
02/23/1995,6.88,6.88,6.84,6.84,0.0,0.0,6000.0
02/22/1995,6.88,6.91,6.81,6.84,0.0,0.0,39600.0
02/21/1995,6.91,6.94,6.84,6.84,-0.06,0.0,49600.0
02/17/1995,6.78,6.94,6.78,6.91,0.19,0.0,141200.0
02/16/1995,6.88,6.88,6.72,6.72,-0.16,0.0,30400.0
02/15/1995,6.69,6.88,6.63,6.88,0.22,0.0,114400.0
02/14/1995,6.66,6.69,6.63,6.66,0.03,0.0,44000.0
02/13/1995,6.63,6.66,6.63,6.63,-0.03,0.0,8800.0
02/10/1995,6.69,6.69,6.63,6.66,-0.03,0.0,64000.0
02/09/1995,6.78,6.81,6.69,6.69,0.0,0.0,130000.0
02/08/1995,6.75,6.75,6.69,6.69,0.0,0.0,44800.0
02/07/1995,6.63,6.69,6.63,6.69,0.09,0.0,12400.0
02/06/1995,6.5,6.69,6.5,6.59,0.16,0.0,22400.0
02/03/1995,6.22,6.47,6.22,6.44,0.28,0.0,298000.0
02/02/1995,6.31,6.38,6.16,6.16,-0.22,0.0,112000.0
02/01/1995,6.44,6.47,6.38,6.38,-0.06,0.0,242000.0
01/31/1995,6.56,6.63,6.44,6.44,-0.13,0.0,72000.0
01/30/1995,6.66,6.69,6.56,6.56,-0.13,0.0,10800.0
01/27/1995,6.72,6.72,6.59,6.69,0.0,0.0,34000.0
01/26/1995,6.56,6.69,6.56,6.69,0.16,0.0,32800.0
01/25/1995,6.59,6.63,6.53,6.53,-0.09,0.0,13600.0
01/24/1995,6.63,6.63,6.59,6.63,0.0,0.0,15600.0
01/23/1995,6.63,6.66,6.63,6.63,0.03,0.0,15200.0
01/20/1995,6.63,6.63,6.56,6.59,0.03,0.0,79200.0
01/19/1995,6.63,6.66,6.56,6.56,-0.06,0.0,204400.0
01/18/1995,6.69,6.69,6.63,6.63,-0.06,0.0,24800.0
01/17/1995,6.53,6.69,6.53,6.69,0.19,0.0,146000.0
01/16/1995,6.47,6.5,6.47,6.5,0.03,0.0,45600.0
01/13/1995,6.38,6.47,6.34,6.47,0.0,0.0,121600.0
01/12/1995,6.5,6.5,6.44,6.47,0.0,0.0,92800.0
01/11/1995,6.53,6.53,6.44,6.47,-0.03,0.0,27200.0
01/10/1995,6.63,6.63,6.5,6.5,0.0,0.0,102800.0
01/09/1995,6.78,6.78,6.5,6.5,-0.31,0.0,56800.0
01/06/1995,6.75,6.88,6.75,6.81,0.06,0.0,79600.0
01/05/1995,6.81,6.91,6.75,6.75,-0.13,0.0,91200.0
01/04/1995,7.0,7.0,6.88,6.88,-0.13,0.0,26000.0
01/03/1995,7.13,7.16,7.0,7.0,0.0,0.0,30400.0
12/30/1994,7.13,7.22,7.09,7.19,0.09,0.0,60800.0
12/29/1994,7.16,7.22,7.09,7.09,-0.06,0.0,16000.0
12/28/1994,7.16,7.19,7.09,7.16,0.03,0.0,98000.0
12/27/1994,7.19,7.19,7.13,7.13,-0.09,0.0,65200.0
12/23/1994,7.16,7.22,7.09,7.22,0.09,0.0,60800.0
12/22/1994,6.97,7.25,6.97,7.13,0.22,0.0,76400.0
12/21/1994,6.81,6.94,6.78,6.91,0.13,0.0,74400.0
12/20/1994,6.72,6.78,6.69,6.78,0.06,0.0,42800.0
12/19/1994,6.66,6.72,6.63,6.72,0.06,0.0,182400.0
12/16/1994,6.59,6.69,6.56,6.66,0.13,0.0,30800.0
12/15/1994,6.5,6.59,6.5,6.53,0.03,0.0,72800.0
12/14/1994,6.34,6.53,6.34,6.5,0.19,0.0,39200.0
12/13/1994,6.25,6.31,6.25,6.31,0.06,0.0,85200.0
12/12/1994,6.28,6.31,6.22,6.25,-0.03,0.0,112000.0
12/09/1994,6.28,6.28,6.22,6.28,0.0,0.0,96400.0
12/08/1994,6.34,6.38,6.28,6.28,-0.09,0.0,84400.0
12/07/1994,6.5,6.5,6.34,6.38,-0.16,0.0,148400.0
12/06/1994,6.63,6.63,6.5,6.53,-0.09,0.0,143600.0
12/05/1994,6.56,6.63,6.56,6.63,0.22,0.0,77600.0
12/02/1994,6.38,6.47,6.38,6.41,-0.03,0.0,28000.0
12/01/1994,6.44,6.47,6.44,6.44,0.0,0.0,40000.0
11/30/1994,6.41,6.44,6.38,6.44,0.03,0.0,86400.0
11/29/1994,6.53,6.53,6.31,6.41,-0.13,0.0,248000.0
11/28/1994,6.72,6.72,6.53,6.53,-0.22,0.0,138400.0
11/25/1994,6.78,6.78,6.75,6.75,0.0,0.0,87600.0
11/23/1994,6.81,6.81,6.69,6.75,-0.09,0.0,146800.0
11/22/1994,6.88,6.91,6.84,6.84,-0.03,0.0,67600.0
11/21/1994,6.94,6.94,6.88,6.88,-0.03,0.0,82800.0
11/18/1994,6.97,6.97,6.91,6.91,-0.09,0.0,15200.0
11/17/1994,6.88,7.13,6.88,7.0,0.16,0.0,143200.0
11/16/1994,6.88,6.91,6.84,6.84,-0.06,0.0,130800.0
11/15/1994,6.88,6.91,6.84,6.91,0.03,0.0,173200.0
11/14/1994,6.88,6.94,6.84,6.88,-0.03,0.0,283200.0
11/11/1994,6.91,6.91,6.84,6.91,-0.03,0.0,212000.0
11/10/1994,7.0,7.13,6.94,6.94,-0.03,0.0,154800.0
11/09/1994,6.97,7.03,6.94,6.97,0.06,0.0,88400.0
11/08/1994,6.88,6.94,6.88,6.91,0.03,0.0,56800.0
11/07/1994,6.94,6.94,6.88,6.88,-0.03,0.0,44000.0
11/04/1994,6.81,6.91,6.81,6.91,0.13,0.0,303200.0
11/03/1994,6.81,6.81,6.78,6.78,0.0,0.0,78400.0
11/02/1994,6.81,6.84,6.78,6.78,-0.09,0.0,180400.0
11/01/1994,6.81,6.97,6.81,6.88,0.06,0.0,228800.0
10/31/1994,6.84,6.84,6.78,6.81,-0.06,0.0,134400.0
10/28/1994,6.78,6.88,6.78,6.88,0.13,0.0,122800.0
10/27/1994,6.81,6.84,6.75,6.75,-0.09,0.0,79600.0
10/26/1994,6.81,6.88,6.78,6.84,0.09,0.0,45200.0
10/25/1994,6.75,6.78,6.75,6.75,-0.03,0.0,107200.0
10/24/1994,6.78,6.81,6.75,6.78,0.03,0.0,55600.0
10/21/1994,6.75,6.78,6.75,6.75,0.0,0.0,46000.0
10/20/1994,6.75,6.78,6.75,6.75,0.0,0.0,131200.0
10/19/1994,6.75,6.81,6.75,6.75,-0.03,0.0,128000.0
10/18/1994,6.78,6.78,6.75,6.78,0.03,0.0,50400.0
10/17/1994,6.84,6.84,6.75,6.75,-0.09,0.0,141200.0
10/14/1994,6.84,6.84,6.81,6.84,0.0,0.0,74800.0
10/13/1994,6.84,6.88,6.84,6.84,-0.03,0.0,128800.0
10/12/1994,6.94,6.94,6.81,6.88,0.06,0.0,264800.0
10/11/1994,6.78,6.84,6.78,6.81,0.03,0.0,54000.0
10/10/1994,6.78,6.78,6.78,6.78,0.0,0.0,35600.0
10/07/1994,6.78,6.78,6.75,6.78,0.06,0.0,89200.0
10/06/1994,6.69,6.72,6.66,6.72,0.06,0.0,130000.0
10/05/1994,6.69,6.69,6.66,6.66,-0.03,0.0,465600.0
10/04/1994,6.75,6.78,6.69,6.69,-0.06,0.0,527600.0
10/03/1994,6.75,6.81,6.72,6.75,0.0,0.0,232400.0
09/30/1994,6.75,6.75,6.66,6.75,0.03,0.0,732800.0
09/29/1994,6.75,6.78,6.66,6.72,0.28,0.0,2773200.0
09/28/1994,6.25,6.47,6.25,6.44,0.19,0.0,74000.0
09/27/1994,6.28,6.28,6.22,6.25,-0.03,0.0,19200.0
09/26/1994,6.25,6.28,6.22,6.28,0.03,0.0,10800.0
09/23/1994,6.28,6.31,6.25,6.25,-0.03,0.0,17200.0
09/22/1994,6.28,6.34,6.28,6.28,0.0,0.0,32400.0
09/21/1994,6.28,6.28,6.28,6.28,-0.03,0.0,35600.0
09/20/1994,6.31,6.31,6.31,6.31,-0.03,0.0,4000.0
09/19/1994,6.41,6.41,6.31,6.34,0.03,0.0,98400.0
09/16/1994,6.22,6.31,6.19,6.31,0.19,0.0,114000.0
09/15/1994,6.03,6.25,6.03,6.13,0.28,0.0,91200.0
09/14/1994,5.88,5.88,5.81,5.84,0.09,0.0,31600.0
09/13/1994,5.91,5.91,5.75,5.75,-0.22,0.0,68800.0
09/12/1994,6.0,6.03,5.97,5.97,-0.09,0.0,14000.0
09/09/1994,6.06,6.09,6.06,6.06,0.0,0.0,32400.0
09/08/1994,6.06,6.09,6.06,6.06,-0.03,0.0,32400.0
09/07/1994,6.0,6.09,6.0,6.09,0.06,0.0,17200.0
09/06/1994,6.09,6.09,6.03,6.03,0.09,0.0,21600.0
09/02/1994,5.88,5.94,5.88,5.94,0.06,0.0,11200.0
09/01/1994,5.88,5.88,5.81,5.88,0.0,0.0,10000.0
08/31/1994,5.81,5.88,5.81,5.88,0.06,0.0,188800.0
08/30/1994,5.75,5.81,5.72,5.81,0.06,0.0,96000.0
08/29/1994,5.56,5.75,5.56,5.75,0.13,0.0,32400.0
08/26/1994,5.56,5.63,5.56,5.63,0.06,0.0,2400.0
08/25/1994,5.53,5.59,5.53,5.56,-0.03,0.0,4400.0
08/24/1994,5.63,5.63,5.59,5.59,-0.03,0.0,5600.0
08/23/1994,5.56,5.63,5.56,5.63,0.06,0.0,3200.0
08/22/1994,5.63,5.63,5.56,5.56,-0.03,0.0,7600.0
08/19/1994,5.66,5.66,5.59,5.59,-0.03,0.0,11200.0
08/18/1994,5.63,5.66,5.59,5.63,-0.03,0.0,38400.0
08/17/1994,5.69,5.69,5.63,5.66,-0.06,0.0,39200.0
08/16/1994,5.78,5.78,5.72,5.72,-0.13,0.0,19200.0
08/15/1994,5.84,5.88,5.84,5.84,-0.06,0.0,11600.0
08/12/1994,5.94,5.94,5.91,5.91,-0.03,0.0,2800.0
08/11/1994,5.94,5.94,5.94,5.94,-0.06,0.0,5200.0
08/10/1994,5.94,6.0,5.94,6.0,0.06,0.0,26400.0
08/09/1994,5.94,5.94,5.94,5.94,-0.03,0.0,4400.0
08/08/1994,6.03,6.03,5.97,5.97,-0.03,0.0,18800.0
08/05/1994,6.03,6.03,6.0,6.0,-0.03,0.0,8000.0
08/04/1994,6.03,6.06,6.03,6.03,0.0,0.0,13600.0
08/03/1994,6.06,6.06,6.03,6.03,-0.03,0.0,6400.0
08/02/1994,6.06,6.06,6.06,6.06,-0.03,0.0,32800.0
08/01/1994,6.09,6.13,6.06,6.09,0.0,0.0,21200.0
07/29/1994,6.16,6.16,6.09,6.09,-0.03,0.0,21600.0
07/28/1994,6.19,6.19,6.13,6.13,0.03,0.0,16000.0
07/27/1994,6.09,6.09,6.09,6.09,0.0,0.0,30800.0
07/26/1994,6.16,6.16,6.09,6.09,-0.06,0.0,6000.0
07/25/1994,6.09,6.19,6.09,6.16,0.06,0.0,14400.0
07/22/1994,6.16,6.16,6.09,6.09,-0.06,0.0,24000.0
07/21/1994,6.13,6.19,6.13,6.16,0.06,0.0,15200.0
07/20/1994,6.09,6.09,6.09,6.09,0.03,0.0,800.0
07/19/1994,6.0,6.06,5.97,6.06,0.19,0.0,26800.0
07/18/1994,5.84,5.94,5.84,5.88,0.03,0.0,14400.0
07/15/1994,5.88,5.91,5.84,5.84,-0.03,0.0,31200.0
07/14/1994,5.84,5.88,5.84,5.88,0.0,0.0,8000.0
07/13/1994,5.88,5.88,5.84,5.88,0.0,0.0,9600.0
07/12/1994,5.81,5.94,5.81,5.88,0.03,0.0,32800.0
07/11/1994,5.91,5.91,5.84,5.84,-0.03,0.0,8400.0
07/08/1994,5.84,5.97,5.84,5.88,0.06,0.0,16000.0
07/07/1994,5.75,5.84,5.75,5.81,0.03,0.0,32800.0
07/06/1994,5.78,5.78,5.78,5.78,0.0,0.0,12800.0
07/05/1994,5.72,5.84,5.72,5.78,0.06,0.0,12000.0
07/01/1994,5.72,5.72,5.69,5.72,0.03,0.0,3200.0
06/30/1994,5.69,5.75,5.66,5.69,0.03,0.0,70000.0
06/29/1994,5.69,5.69,5.66,5.66,-0.03,0.0,8000.0
06/28/1994,5.75,5.78,5.69,5.69,-0.13,0.0,44400.0
06/27/1994,5.81,5.81,5.81,5.81,0.0,0.0,1600.0
06/24/1994,5.94,5.94,5.81,5.81,-0.13,0.0,12800.0
06/23/1994,6.0,6.0,5.94,5.94,-0.09,0.0,5200.0
06/22/1994,5.94,6.06,5.94,6.03,0.16,0.0,64400.0
06/21/1994,6.03,6.03,5.88,5.88,-0.13,0.0,13600.0
06/20/1994,6.16,6.16,6.0,6.0,-0.16,0.0,14800.0
06/17/1994,6.22,6.22,6.16,6.16,0.0,0.0,22400.0
06/16/1994,6.06,6.16,6.06,6.16,0.13,0.0,17600.0
06/15/1994,6.03,6.03,6.03,6.03,-0.03,0.0,5200.0
06/14/1994,6.13,6.13,6.06,6.06,-0.16,0.0,61600.0
06/13/1994,6.13,6.22,6.13,6.22,0.06,0.0,12000.0
06/10/1994,6.13,6.16,6.13,6.16,0.0,0.0,2000.0
06/09/1994,6.13,6.16,6.13,6.16,0.06,0.0,47200.0
06/08/1994,6.16,6.16,6.09,6.09,-0.03,0.0,10400.0
06/07/1994,6.34,6.34,6.13,6.13,-0.25,0.0,60000.0
06/06/1994,6.41,6.41,6.34,6.38,-0.03,0.0,6800.0
06/03/1994,6.34,6.41,6.34,6.41,0.06,0.0,122400.0
06/02/1994,6.22,6.34,6.19,6.34,0.13,0.0,159600.0
06/01/1994,6.09,6.22,6.03,6.22,0.13,0.0,24000.0
05/31/1994,6.0,6.13,6.0,6.09,0.0,0.0,78400.0
05/27/1994,6.03,6.13,6.0,6.09,0.13,0.0,78400.0
05/26/1994,6.06,6.06,5.97,5.97,-0.03,0.0,320400.0
05/25/1994,5.88,6.0,5.88,6.0,0.13,0.0,8000.0
05/24/1994,5.81,5.94,5.81,5.88,0.03,0.0,20400.0
05/23/1994,5.88,5.88,5.84,5.84,0.0,0.0,1600.0
05/20/1994,5.84,5.91,5.78,5.84,0.06,0.0,18400.0
05/19/1994,5.78,5.78,5.75,5.78,0.03,0.0,4000.0
05/18/1994,5.84,5.84,5.75,5.75,0.03,0.0,24000.0
05/17/1994,5.72,5.72,5.72,5.72,0.0,0.0,4400.0
05/16/1994,5.72,5.72,5.72,5.72,0.03,0.0,1600.0
05/13/1994,6.0,6.0,5.69,5.69,-0.28,0.0,30400.0
05/12/1994,6.0,6.0,5.97,5.97,-0.06,0.0,3200.0
05/11/1994,6.03,6.13,6.0,6.03,0.0,0.0,40000.0
05/10/1994,5.88,6.09,5.88,6.03,0.22,0.0,49600.0
05/09/1994,5.69,5.81,5.59,5.81,0.13,0.0,20800.0
05/06/1994,5.56,5.69,5.56,5.69,0.09,0.0,33600.0
05/05/1994,5.56,5.59,5.5,5.59,0.06,0.0,364400.0
05/04/1994,5.5,5.56,5.5,5.53,-0.03,0.0,2800.0
05/03/1994,5.66,5.72,5.56,5.56,-0.09,0.0,16000.0
05/02/1994,5.53,5.66,5.53,5.66,0.06,0.0,11600.0
04/29/1994,5.66,5.69,5.59,5.59,-0.03,0.0,11200.0
04/28/1994,5.59,5.63,5.56,5.63,-0.03,0.0,35600.0
04/26/1994,5.63,5.66,5.63,5.66,0.06,0.0,4800.0
04/25/1994,5.47,5.59,5.47,5.59,0.19,0.0,20400.0
04/22/1994,5.41,5.47,5.41,5.41,-0.09,0.0,16800.0
04/21/1994,5.47,5.5,5.47,5.5,0.06,0.0,60000.0
04/20/1994,5.44,5.44,5.44,5.44,-0.03,0.0,400.0
04/19/1994,5.47,5.47,5.47,5.47,0.03,0.0,400.0
04/18/1994,5.47,5.5,5.41,5.44,-0.03,0.0,21200.0
04/15/1994,5.5,5.5,5.47,5.47,0.0,0.0,7200.0
04/14/1994,5.5,5.5,5.44,5.47,-0.06,0.0,29200.0
04/13/1994,5.53,5.53,5.53,5.53,-0.03,0.0,3200.0
04/12/1994,5.63,5.63,5.56,5.56,-0.03,0.0,43600.0
04/11/1994,5.59,5.59,5.59,5.59,-0.03,0.0,2800.0
04/08/1994,5.66,5.66,5.59,5.63,-0.03,0.0,68800.0
04/07/1994,5.59,5.66,5.56,5.66,0.03,0.0,34800.0
04/06/1994,5.66,5.66,5.63,5.63,0.0,0.0,376800.0
04/05/1994,5.44,5.66,5.44,5.63,0.13,0.0,104800.0
04/04/1994,5.5,5.5,5.31,5.5,0.16,0.0,29600.0
03/31/1994,5.41,5.41,5.31,5.34,-0.03,0.0,31200.0
03/30/1994,5.53,5.56,5.38,5.38,-0.22,0.0,46800.0
03/29/1994,5.66,5.66,5.59,5.59,-0.03,0.0,180400.0
03/28/1994,5.63,5.66,5.63,5.63,0.0,0.0,32000.0
03/25/1994,5.63,5.63,5.63,5.63,0.0,0.0,2000.0
03/24/1994,5.66,5.66,5.63,5.63,-0.03,0.0,93600.0
03/23/1994,5.63,5.66,5.63,5.66,0.03,0.0,122400.0
03/22/1994,5.63,5.63,5.63,5.63,-0.03,0.0,19200.0
03/21/1994,5.66,5.66,5.63,5.66,-0.03,0.0,87600.0
03/18/1994,5.63,5.69,5.63,5.69,0.06,0.0,179600.0
03/17/1994,5.56,5.66,5.56,5.63,0.03,0.0,231600.0
03/16/1994,5.59,5.59,5.56,5.59,-0.03,0.0,24800.0
03/15/1994,5.59,5.63,5.59,5.63,0.0,0.0,5200.0
03/14/1994,5.59,5.66,5.59,5.63,0.03,0.0,96800.0
03/11/1994,5.59,5.69,5.59,5.59,0.03,0.0,46800.0
03/10/1994,5.56,5.56,5.56,5.56,0.0,0.0,12400.0
03/09/1994,5.59,5.59,5.56,5.56,-0.03,0.0,3200.0
03/08/1994,5.56,5.59,5.56,5.59,0.03,0.0,9600.0
03/07/1994,5.56,5.59,5.56,5.56,0.0,0.0,14000.0
03/04/1994,5.53,5.56,5.53,5.56,0.06,0.0,15600.0
03/03/1994,5.44,5.59,5.38,5.5,0.06,0.0,53600.0
03/02/1994,5.5,5.5,5.44,5.44,-0.06,0.0,16000.0
03/01/1994,5.53,5.53,5.47,5.5,-0.03,0.0,8400.0
02/28/1994,5.34,5.53,5.31,5.53,0.19,0.0,76000.0
02/25/1994,5.34,5.34,5.34,5.34,0.03,0.0,2000.0
02/24/1994,5.31,5.31,5.31,5.31,-0.06,0.0,4400.0
02/23/1994,5.41,5.41,5.38,5.38,-0.06,0.0,6800.0
02/22/1994,5.44,5.44,5.44,5.44,0.03,0.0,1600.0
02/18/1994,5.47,5.5,5.41,5.41,0.0,0.0,20000.0
02/17/1994,5.41,5.41,5.38,5.41,0.03,0.0,45200.0
02/16/1994,5.34,5.5,5.34,5.38,0.0,0.0,77600.0
02/15/1994,5.41,5.41,5.38,5.38,0.0,0.0,12800.0
02/14/1994,5.41,5.41,5.38,5.38,-0.03,0.0,4000.0
02/11/1994,5.38,5.44,5.31,5.41,0.03,0.0,8400.0
02/10/1994,5.41,5.41,5.31,5.38,0.06,0.0,8400.0
02/09/1994,5.28,5.38,5.28,5.31,-0.03,0.0,32400.0
02/08/1994,5.28,5.34,5.28,5.34,0.09,0.0,4000.0
02/07/1994,5.25,5.25,5.25,5.25,0.0,0.0,0.0
02/04/1994,5.25,5.25,5.22,5.25,0.0,0.0,13200.0
02/03/1994,5.19,5.28,5.13,5.25,0.0,0.0,31600.0
02/02/1994,5.25,5.25,5.25,5.25,-0.03,0.0,25600.0
02/01/1994,5.28,5.28,5.25,5.28,0.06,0.0,13600.0
01/31/1994,5.09,5.22,5.06,5.22,0.16,0.0,20800.0
01/28/1994,5.06,5.16,5.06,5.06,-0.13,0.0,15600.0
01/27/1994,5.06,5.19,5.06,5.19,0.03,0.0,54800.0
01/26/1994,5.13,5.16,5.13,5.16,0.0,0.0,2400.0
01/25/1994,5.13,5.16,5.09,5.16,-0.03,0.0,7600.0
01/24/1994,5.16,5.19,5.09,5.19,0.13,0.0,12000.0
01/21/1994,5.06,5.09,5.03,5.06,-0.06,0.0,32000.0
01/20/1994,5.19,5.19,5.13,5.13,-0.13,0.0,47600.0
01/19/1994,5.16,5.25,5.16,5.25,0.06,0.0,45200.0
01/18/1994,5.13,5.19,5.13,5.19,0.03,0.0,23200.0
01/17/1994,5.09,5.19,5.09,5.16,0.06,0.0,32000.0
01/14/1994,5.03,5.13,5.03,5.09,0.0,0.0,10800.0
01/13/1994,5.09,5.09,5.06,5.09,0.0,0.0,8800.0
01/12/1994,5.06,5.09,5.06,5.09,0.0,0.0,8000.0
01/11/1994,5.03,5.09,5.03,5.09,0.03,0.0,15600.0
01/10/1994,5.09,5.09,5.03,5.06,-0.03,0.0,38800.0
01/07/1994,5.09,5.09,5.09,5.09,0.0,0.0,10400.0
01/06/1994,5.13,5.16,5.09,5.09,-0.06,0.0,17200.0
01/05/1994,5.16,5.16,5.16,5.16,-0.03,0.0,10000.0
01/04/1994,5.16,5.19,5.16,5.19,0.03,0.0,6000.0
01/03/1994,5.13,5.16,5.09,5.16,0.0,0.0,9600.0
12/31/1993,5.13,5.19,5.13,5.19,0.03,0.0,9200.0
12/30/1993,5.09,5.16,5.09,5.16,0.0,0.0,9200.0
12/29/1993,5.16,5.16,5.16,5.16,0.03,0.0,2000.0
12/28/1993,5.13,5.13,5.13,5.13,-0.06,0.0,2000.0
12/27/1993,5.16,5.19,5.16,5.19,0.0,0.0,1200.0
12/23/1993,5.16,5.19,5.13,5.19,0.09,0.0,68400.0
12/22/1993,5.22,5.22,5.09,5.09,-0.09,0.0,39600.0
12/21/1993,5.22,5.22,5.16,5.19,0.09,0.0,70400.0
12/20/1993,5.03,5.13,5.03,5.09,0.06,0.0,33200.0
12/17/1993,5.13,5.16,5.03,5.03,0.0,0.0,26800.0
12/16/1993,5.19,5.22,5.03,5.03,-0.16,0.0,248800.0
12/15/1993,5.25,5.25,5.19,5.19,-0.06,0.0,21600.0
12/14/1993,5.25,5.28,5.22,5.25,-0.03,0.0,262400.0
12/13/1993,5.28,5.28,5.28,5.28,0.0,0.0,0.0
12/10/1993,5.25,5.28,5.25,5.28,0.03,0.0,3200.0
12/09/1993,5.25,5.25,5.25,5.25,0.03,0.0,7600.0
12/08/1993,5.28,5.28,5.22,5.22,-0.03,0.0,141200.0
12/07/1993,5.28,5.28,5.25,5.25,0.0,0.0,10800.0
12/06/1993,5.28,5.28,5.25,5.25,0.0,0.0,20000.0
12/03/1993,5.28,5.31,5.25,5.25,-0.09,0.0,16800.0
12/02/1993,5.41,5.41,5.34,5.34,-0.06,0.0,2000.0
12/01/1993,5.31,5.41,5.31,5.41,0.03,0.0,12800.0
11/30/1993,5.41,5.41,5.38,5.38,0.0,0.0,3600.0
11/29/1993,5.38,5.38,5.38,5.38,0.06,0.0,10400.0
11/26/1993,5.31,5.31,5.31,5.31,0.03,0.0,4000.0
11/24/1993,5.28,5.28,5.28,5.28,-0.03,0.0,45600.0
11/23/1993,5.28,5.31,5.28,5.31,0.09,0.0,5600.0
11/22/1993,5.31,5.31,5.16,5.22,-0.16,0.0,62000.0
11/19/1993,5.38,5.38,5.28,5.38,0.03,0.0,23200.0
11/18/1993,5.34,5.38,5.34,5.34,-0.09,0.0,4000.0
11/17/1993,5.34,5.44,5.34,5.44,0.09,0.0,123600.0
11/16/1993,5.41,5.41,5.34,5.34,0.03,0.0,21200.0
11/15/1993,5.34,5.38,5.31,5.31,0.0,0.0,11200.0
11/12/1993,5.25,5.34,5.25,5.31,0.09,0.0,96000.0
11/11/1993,5.19,5.28,5.16,5.22,0.09,0.0,163200.0
11/10/1993,5.09,5.16,5.06,5.13,0.03,0.0,24800.0
11/09/1993,5.06,5.09,5.03,5.09,0.09,0.0,6800.0
11/08/1993,5.0,5.0,5.0,5.0,0.0,0.0,48400.0
11/05/1993,4.97,5.0,4.94,5.0,-0.06,0.0,18400.0
11/04/1993,5.13,5.13,5.06,5.06,-0.13,0.0,22400.0
11/03/1993,5.22,5.25,5.19,5.19,-0.06,0.0,56800.0
11/02/1993,5.31,5.31,5.25,5.25,-0.06,0.0,14800.0
11/01/1993,5.28,5.38,5.28,5.31,0.03,0.0,49600.0
10/29/1993,5.38,5.38,5.25,5.28,-0.06,0.0,64800.0
10/28/1993,5.38,5.38,5.34,5.34,-0.03,0.0,12000.0
10/27/1993,5.47,5.47,5.38,5.38,-0.09,0.0,27200.0
10/26/1993,5.44,5.5,5.44,5.47,0.09,0.0,67600.0
10/25/1993,5.28,5.38,5.28,5.38,0.03,0.0,30400.0
10/22/1993,5.31,5.34,5.31,5.34,0.0,0.0,9200.0
10/21/1993,5.41,5.41,5.34,5.34,-0.03,0.0,3600.0
10/20/1993,5.41,5.41,5.31,5.38,-0.06,0.0,130800.0
10/19/1993,5.44,5.44,5.41,5.44,0.06,0.0,19200.0
10/18/1993,5.44,5.44,5.38,5.38,-0.03,0.0,8400.0
10/15/1993,5.44,5.5,5.41,5.41,0.03,0.0,24800.0
10/14/1993,5.41,5.41,5.31,5.38,-0.03,0.0,68000.0
10/13/1993,5.34,5.41,5.34,5.41,0.09,0.0,6800.0
10/12/1993,5.34,5.34,5.31,5.31,0.0,0.0,25600.0
10/11/1993,5.34,5.34,5.31,5.31,-0.06,0.0,13600.0
10/08/1993,5.38,5.41,5.31,5.38,0.06,0.0,18000.0
10/07/1993,5.31,5.34,5.31,5.31,0.0,0.0,179600.0
10/06/1993,5.31,5.38,5.31,5.31,0.0,0.0,76000.0
10/05/1993,5.28,5.38,5.28,5.31,0.03,0.0,18800.0
10/04/1993,5.22,5.38,5.22,5.28,0.03,0.0,54000.0
10/01/1993,5.25,5.31,5.25,5.25,0.0,0.0,453199.0
09/30/1993,5.25,5.25,5.25,5.25,0.03,0.0,7600.0
09/29/1993,5.09,5.22,5.09,5.22,0.16,0.0,22000.0
09/28/1993,5.09,5.09,5.0,5.06,-0.03,0.0,58000.0
09/27/1993,4.88,5.09,4.88,5.09,0.22,0.0,42400.0
09/24/1993,4.81,4.91,4.81,4.88,0.13,0.0,28800.0
09/23/1993,4.75,4.78,4.66,4.75,0.03,0.0,95600.0
09/22/1993,4.63,4.72,4.63,4.72,0.09,0.0,45600.0
09/21/1993,4.63,4.63,4.56,4.63,0.03,0.0,133600.0
09/20/1993,4.69,4.69,4.59,4.59,-0.09,0.0,40400.0
09/17/1993,4.75,4.75,4.69,4.69,-0.13,0.0,143200.0
09/16/1993,4.81,4.81,4.78,4.81,0.0,0.0,96400.0
09/15/1993,4.81,4.81,4.81,4.81,0.0,0.0,43200.0
09/14/1993,4.81,4.81,4.81,4.81,0.0,0.0,48000.0
09/13/1993,4.72,4.81,4.72,4.81,0.03,0.0,13600.0
09/10/1993,4.81,4.81,4.75,4.78,0.0,0.0,11600.0
09/09/1993,4.84,4.84,4.75,4.78,0.03,0.0,112400.0
09/08/1993,4.84,4.84,4.75,4.75,-0.03,0.0,6800.0
09/07/1993,4.75,4.81,4.75,4.78,0.03,0.0,17200.0
09/03/1993,4.72,4.75,4.66,4.75,0.06,0.0,32800.0
09/02/1993,4.69,4.75,4.69,4.69,0.0,0.0,55600.0
09/01/1993,4.75,4.75,4.63,4.69,-0.09,0.0,52800.0
08/31/1993,4.78,4.78,4.78,4.78,0.06,0.0,8800.0
08/30/1993,4.75,4.75,4.66,4.72,-0.03,0.0,12400.0
08/27/1993,4.75,4.75,4.75,4.75,0.06,0.0,8000.0
08/26/1993,4.69,4.69,4.66,4.69,0.03,0.0,5200.0
08/25/1993,4.72,4.72,4.63,4.66,-0.06,0.0,38400.0
08/24/1993,4.78,4.78,4.69,4.72,-0.06,0.0,24800.0
08/23/1993,4.75,4.78,4.75,4.78,0.06,0.0,6400.0
08/20/1993,4.66,4.72,4.66,4.72,0.03,0.0,23600.0
08/19/1993,4.75,4.75,4.69,4.69,-0.09,0.0,18000.0
08/18/1993,4.75,4.78,4.72,4.78,0.03,0.0,13600.0
08/17/1993,4.72,4.75,4.69,4.75,0.0,0.0,16800.0
08/16/1993,4.78,4.78,4.72,4.75,0.0,0.0,12800.0
08/13/1993,4.66,4.75,4.66,4.75,0.06,0.0,5600.0
08/12/1993,4.66,4.72,4.63,4.69,0.03,0.0,26400.0
08/11/1993,4.66,4.66,4.66,4.66,0.0,0.0,0.0
08/10/1993,4.59,4.69,4.59,4.66,0.03,0.0,8400.0
08/09/1993,4.66,4.66,4.59,4.63,0.0,0.0,14000.0
08/06/1993,4.59,4.66,4.59,4.63,-0.03,0.0,48000.0
08/05/1993,4.63,4.66,4.63,4.66,0.0,0.0,4800.0
08/04/1993,4.66,4.66,4.66,4.66,0.0,0.0,0.0
08/03/1993,4.59,4.66,4.59,4.66,-0.03,0.0,5200.0
08/02/1993,4.69,4.69,4.63,4.69,0.03,0.0,9200.0
07/30/1993,4.59,4.66,4.59,4.66,0.03,0.0,8000.0
07/29/1993,4.56,4.63,4.56,4.63,0.06,0.0,1600.0
07/28/1993,4.66,4.66,4.56,4.56,-0.06,0.0,12800.0
07/27/1993,4.72,4.72,4.63,4.63,-0.06,0.0,13600.0
07/26/1993,4.66,4.69,4.66,4.69,0.06,0.0,24400.0
07/23/1993,4.56,4.63,4.56,4.63,0.06,0.0,19600.0
07/22/1993,4.59,4.59,4.56,4.56,0.0,0.0,14800.0
07/21/1993,4.56,4.59,4.56,4.56,0.0,0.0,120400.0
07/20/1993,4.56,4.56,4.5,4.56,0.0,0.0,214400.0
07/19/1993,4.59,4.59,4.56,4.56,0.0,0.0,8000.0
07/16/1993,4.53,4.56,4.53,4.56,0.03,0.0,34400.0
07/15/1993,4.5,4.56,4.5,4.53,0.0,0.0,96000.0
07/14/1993,4.47,4.53,4.47,4.53,0.06,0.0,540800.0
07/13/1993,4.63,4.63,4.47,4.47,-0.19,0.0,36800.0
07/12/1993,4.69,4.69,4.66,4.66,0.0,0.0,8800.0
07/09/1993,4.66,4.69,4.66,4.66,-0.06,0.0,8800.0
07/08/1993,4.66,4.72,4.66,4.72,0.0,0.0,14800.0
07/07/1993,4.75,4.75,4.69,4.72,0.03,0.0,23200.0
07/06/1993,4.66,4.69,4.66,4.69,0.0,0.0,108800.0
07/02/1993,4.69,4.69,4.63,4.69,0.06,0.0,16000.0
07/01/1993,4.63,4.63,4.59,4.63,0.03,0.0,9600.0
06/30/1993,4.56,4.63,4.56,4.59,0.06,0.0,31600.0
06/29/1993,4.53,4.56,4.53,4.53,-0.03,0.0,56400.0
06/28/1993,4.53,4.56,4.53,4.56,0.03,0.0,16800.0
06/25/1993,4.59,4.59,4.53,4.53,-0.03,0.0,66000.0
06/24/1993,4.56,4.59,4.56,4.56,-0.03,0.0,29200.0
06/23/1993,4.56,4.63,4.56,4.59,0.0,0.0,557600.0
06/22/1993,4.59,4.63,4.59,4.59,0.0,0.0,11200.0
06/21/1993,4.56,4.63,4.56,4.59,0.09,0.0,26800.0
06/18/1993,4.5,4.56,4.5,4.5,0.0,0.0,29600.0
06/17/1993,4.5,4.5,4.5,4.5,0.0,0.0,4400.0
06/16/1993,4.5,4.53,4.5,4.5,0.03,0.0,84800.0
06/15/1993,4.47,4.47,4.47,4.47,0.0,0.0,113600.0
06/14/1993,4.44,4.47,4.44,4.47,0.03,0.0,26800.0
06/11/1993,4.44,4.44,4.44,4.44,0.0,0.0,2400.0
06/10/1993,4.44,4.47,4.44,4.44,-0.03,0.0,17600.0
06/09/1993,4.5,4.53,4.47,4.47,0.0,0.0,46400.0
06/08/1993,4.41,4.47,4.41,4.47,0.06,0.0,94400.0
06/07/1993,4.44,4.44,4.41,4.41,-0.06,0.0,2400.0
06/04/1993,4.41,4.47,4.41,4.47,0.06,0.0,6800.0
06/03/1993,4.41,4.44,4.41,4.41,-0.03,0.0,15600.0
06/02/1993,4.41,4.47,4.41,4.44,0.0,0.0,33200.0
06/01/1993,4.34,4.5,4.34,4.44,0.13,0.0,12400.0
05/28/1993,4.28,4.31,4.28,4.31,0.06,0.0,88000.0
05/27/1993,4.22,4.25,4.22,4.25,0.0,0.0,20000.0
05/26/1993,4.28,4.28,4.25,4.25,-0.03,0.0,49600.0
05/25/1993,4.41,4.44,4.25,4.28,-0.13,0.0,78400.0
05/24/1993,4.47,4.5,4.41,4.41,-0.13,0.0,39600.0
05/21/1993,4.53,4.56,4.5,4.53,-0.06,0.0,19600.0
05/20/1993,4.47,4.59,4.47,4.59,0.09,0.0,21600.0
05/19/1993,4.34,4.5,4.34,4.5,0.16,0.0,17600.0
05/18/1993,4.44,4.47,4.34,4.34,-0.13,0.0,50400.0
05/17/1993,4.59,4.59,4.44,4.47,-0.16,0.0,26800.0
05/14/1993,4.66,4.69,4.63,4.63,0.16,0.0,38400.0
05/13/1993,4.38,4.56,4.19,4.47,0.31,0.0,83600.0
05/12/1993,4.06,4.16,4.0,4.16,0.03,0.0,67200.0
05/11/1993,4.22,4.22,4.09,4.13,-0.09,0.0,29600.0
05/10/1993,4.31,4.31,4.22,4.22,-0.06,0.0,14400.0
05/07/1993,4.28,4.34,4.28,4.28,0.0,0.0,16800.0
05/06/1993,4.25,4.31,4.25,4.28,0.09,0.0,25600.0
05/05/1993,4.19,4.22,4.16,4.19,0.0,0.0,12400.0
05/04/1993,4.31,4.31,4.16,4.19,-0.19,0.0,19200.0
05/03/1993,4.47,4.47,4.38,4.38,-0.13,0.0,12800.0
04/30/1993,4.69,4.75,4.5,4.5,-0.19,0.0,35200.0
04/29/1993,4.75,4.78,4.69,4.69,-0.06,0.0,15200.0
04/28/1993,4.69,4.75,4.69,4.75,0.0,0.0,17600.0
