12/01/2022,13.36877350395316,116.84,143.577,90.102
11/01/2022,15.162837795083083,118.88,149.205,88.554
10/01/2022,15.640111732337465,120.66,151.94,89.379
09/01/2022,14.950928900907796,122.2,152.101,92.298
08/01/2022,13.741003420420213,124.1,151.582,96.617
07/01/2022,13.093230120944181,125.8,151.986,99.613
06/01/2022,12.422088592503275,126.73,151.574,101.885
05/01/2022,11.590547226080396,127.27,150.451,104.088
04/01/2022,11.125704921486998,127.58,149.831,105.328
03/01/2022,10.94734259991894,127.76,149.654,105.865
02/01/2022,11.065935568220157,127.64,149.771,105.508
01/01/2022,11.524572443262265,127.15,150.199,104.1
12/01/2021,11.84462008677357,126.85,150.539,103.16
11/01/2021,12.581485405149902,126.08,151.242,100.917
10/01/2021,13.798780743239599,125.08,152.677,97.482
09/01/2021,14.742274756631012,124.09,153.574,94.605
08/01/2021,14.827574144141042,123.9,153.555,94.244
07/01/2021,14.711542917043063,122.94,152.363,93.516
06/01/2021,14.82549746214271,122.1,151.75,92.449
05/01/2021,14.203413674184102,120.97,149.376,92.563
04/01/2021,12.856110609356156,119.53,145.242,93.817
03/01/2021,10.70815366905051,118.1,139.516,96.683
02/01/2021,9.286568257435034,117.06,135.633,98.486
01/01/2021,8.963674748673112,116.78,134.707,98.852
12/01/2020,8.178173084497537,115.79,132.146,99.433
11/01/2020,6.6346620109844325,114.51,127.779,101.24
10/01/2020,6.272850627904351,113.51,126.055,100.964
09/01/2020,6.774412520654467,112.9,126.448,99.351
08/01/2020,7.40814517946294,112.19,127.006,97.373
07/01/2020,8.240166563850515,110.98,127.46,94.499
06/01/2020,8.31236007401027,110.42,127.044,93.795
05/01/2020,8.5028953892189,109.92,126.925,92.914
04/01/2020,8.508490759235743,109.73,126.746,92.713
03/01/2020,8.560977163852268,109.62,126.741,92.498
02/01/2020,8.412792342617285,109.76,126.585,92.934
01/01/2020,8.959188021243891,109.38,127.298,91.461
12/01/2019,9.570092214811728,108.22,127.36,89.079
11/01/2019,9.922277712299733,107.11,126.954,87.265
10/01/2019,10.530219845758207,106.0,127.06,84.939
09/01/2019,10.731923639310896,104.56,126.023,83.096
08/01/2019,10.853932927745593,103.01,124.717,81.302
07/01/2019,10.493564694611646,101.21,122.197,80.222
06/01/2019,9.799480853596275,99.58,119.178,79.981
05/01/2019,8.350520343068448,97.72,114.421,81.018
04/01/2019,7.894635520402446,96.37,112.159,80.58
03/01/2019,7.582809835410617,94.99,110.155,79.824
02/01/2019,7.6979416079884615,93.71,109.105,78.314
01/01/2019,7.6054118889117355,92.97,108.18,77.759
12/01/2018,7.656562218123743,92.27,107.583,76.956
11/01/2018,8.071229769991682,91.58,107.722,75.437
10/01/2018,8.134764286689565,90.22,106.489,73.95
09/01/2018,8.351671988290727,88.85,105.553,72.146
08/01/2018,7.842217798556732,87.11,102.794,71.425
07/01/2018,7.273827053209335,85.55,100.097,71.002
06/01/2018,6.646336208769458,84.09,97.382,70.797
05/01/2018,6.830139456848593,82.99,96.65,69.329
04/01/2018,6.580287227773571,82.25,95.41,69.089
03/01/2018,6.105222354673087,81.47,93.68,69.259
02/01/2018,5.829237085588472,80.89,92.548,69.231
01/01/2018,5.498046925954706,80.37,91.366,69.373
12/01/2017,5.288759779003012,79.86,90.437,69.282
11/01/2017,5.137610339447708,79.35,89.625,69.074
10/01/2017,4.699472310802564,78.85,88.248,69.451
09/01/2017,4.425085309912116,78.18,87.03,69.329
08/01/2017,4.150128311269424,77.51,85.81,69.209
07/01/2017,4.030557653724854,76.96,85.021,68.898
06/01/2017,3.957664715460368,76.64,84.555,68.724
05/01/2017,3.2363760597310067,75.98,82.452,69.507
04/01/2017,3.2407136559714744,75.02,81.501,68.538
03/01/2017,3.4099860703527813,74.38,81.199,67.56
02/01/2017,3.639228627058212,73.92,81.198,66.641
01/01/2017,4.252712663700664,73.38,81.885,64.874
12/01/2016,4.741593086716742,72.92,82.403,63.436
11/01/2016,5.294379567050326,72.35,82.938,61.761
10/01/2016,5.62686902282255,71.87,83.123,60.616
09/01/2016,5.776975852468141,71.59,83.143,60.036
08/01/2016,5.895991010847964,70.87,82.661,59.078
07/01/2016,5.722005767211354,70.32,81.764,58.875
06/01/2016,5.524107620240575,69.67,80.718,58.621
05/01/2016,5.299916037070776,68.83,79.429,58.23
04/01/2016,5.210421288149356,68.0,78.42,57.579
03/01/2016,4.933173927604823,67.41,77.276,57.543
02/01/2016,4.418156855522447,66.54,75.376,57.703
01/01/2016,4.1046936548297985,66.21,74.419,58.0
12/01/2015,3.809882544121276,65.89,73.509,58.27
11/01/2015,3.504101882080486,65.63,72.638,58.621
10/01/2015,2.8629373028412624,65.21,70.935,59.484
09/01/2015,2.1492079936571984,64.84,69.138,60.541
08/01/2015,2.144454476084769,64.73,69.018,60.441
07/01/2015,2.174074515742274,64.75,69.098,60.401
06/01/2015,2.0607049764582994,64.61,68.731,60.488
05/01/2015,2.0544950717877133,64.63,68.738,60.521
04/01/2015,2.2723005963120286,64.45,68.994,59.905
03/01/2015,2.538387283296227,64.29,69.366,59.213
02/01/2015,2.8435690601777197,64.03,69.717,58.342
01/01/2015,3.3941943079322967,63.5,70.288,56.711
12/01/2014,3.7022169034242176,63.18,70.584,55.775
11/01/2014,3.9051594077578957,62.64,70.45,54.829
10/01/2014,4.018963796801359,62.24,70.277,54.202
09/01/2014,4.407680796064978,61.83,70.645,53.014
08/01/2014,4.945418586934781,61.37,71.26,51.479
07/01/2014,5.719513091164317,60.55,71.989,49.11
06/01/2014,6.367116694391584,59.88,72.614,47.145
05/01/2014,6.408885238479465,59.09,71.907,46.272
04/01/2014,6.358654731938195,58.35,71.067,45.632
03/01/2014,6.210927869489389,57.51,69.931,45.088
02/01/2014,6.086797187355597,56.7,68.873,44.526
01/01/2014,5.796178051095394,55.95,67.542,44.357
12/01/2013,5.610245538298658,55.29,66.51,44.069
11/01/2013,4.819495305527333,54.63,64.268,44.991
10/01/2013,4.203949333662337,54.12,62.527,45.712
09/01/2013,3.5210779599435176,53.55,60.592,46.507
08/01/2013,3.185659272426981,53.16,59.531,46.788
07/01/2013,2.9144562099987024,52.83,58.658,47.001
06/01/2013,2.6483872450984203,52.45,57.746,47.153
05/01/2013,2.7399552916060514,52.09,57.569,46.61
04/01/2013,2.970846680661929,51.49,57.431,45.548
03/01/2013,2.781051959241323,51.21,56.772,45.647
02/01/2013,2.3977969054947086,50.89,55.685,46.094
01/01/2013,2.3202047323458337,50.81,55.45,46.169
12/01/2012,2.3840585143825646,50.91,55.678,46.141
11/01/2012,2.289036915386032,51.14,55.718,46.561
10/01/2012,2.161723849153726,51.27,55.593,46.946
09/01/2012,2.264461304593214,51.11,55.638,46.581
08/01/2012,2.354024213979117,50.93,55.638,46.221
07/01/2012,2.4652281841647032,50.77,55.7,45.839
06/01/2012,2.702441488728294,50.56,55.964,45.155
05/01/2012,2.9676008828681795,50.25,56.185,44.314
04/01/2012,3.1277635780218422,50.0,56.255,43.744
03/01/2012,3.4402579845122085,49.35,56.23,42.469
02/01/2012,3.46431739308049,48.77,55.698,41.841
01/01/2012,4.078279661818203,48.02,56.176,39.863
12/01/2011,4.312905633097019,47.39,56.015,38.764
11/01/2011,4.266105952739571,46.94,55.472,38.407
10/01/2011,4.473068298159553,46.37,55.316,37.423
09/01/2011,4.767189947967251,45.89,55.424,36.355
08/01/2011,5.278418797329367,45.43,55.986,34.873
07/01/2011,5.544670864893606,44.7,55.789,33.61
06/01/2011,5.643187928821794,43.95,55.236,32.663
05/01/2011,5.59762404954102,43.1,54.295,31.904
04/01/2011,5.19910328806805,42.3,52.698,31.901
03/01/2011,4.91866140326817,41.39,51.227,31.552
02/01/2011,4.679005770460217,40.63,49.988,31.271
01/01/2011,4.570415189017296,39.91,49.05,30.769
12/01/2010,4.561312311166601,39.06,48.182,29.937
11/01/2010,4.44124869828295,38.23,47.112,29.347
10/01/2010,4.352812309300735,37.51,46.215,28.804
09/01/2010,4.470245518984388,36.67,45.61,27.729
08/01/2010,4.133548112699306,35.92,44.187,27.652
07/01/2010,3.9200631372466437,35.6,43.44,27.759
06/01/2010,3.5469268388282273,35.12,42.213,28.026
05/01/2010,3.6370771231855943,34.75,42.024,27.475
04/01/2010,3.587685186857955,34.71,41.885,27.534
03/01/2010,3.3162056631035415,34.58,41.212,27.947
02/01/2010,3.2721514329260497,34.54,41.084,27.995
01/01/2010,3.553300578335585,34.71,41.816,27.603
12/01/2009,4.1699754195918235,35.18,43.519,26.84
11/01/2009,4.606753737720305,35.6,44.813,26.386
10/01/2009,4.6630681959413804,35.74,45.066,26.413
09/01/2009,4.677084561989445,35.85,45.204,26.495
08/01/2009,4.683169866660828,35.86,45.226,26.493
07/01/2009,4.794696549313627,36.19,45.779,26.6
06/01/2009,4.9586298510778155,36.55,46.467,26.632
05/01/2009,5.217246879341632,37.1,47.534,26.665
04/01/2009,5.027616234359978,37.44,47.495,27.384
03/01/2009,4.817886984975883,37.71,47.345,28.074
02/01/2009,4.59033931207705,37.97,47.15,28.789
01/01/2009,4.038499102389401,38.35,46.426,30.273
12/01/2008,3.659839477354164,38.68,45.999,31.36
11/01/2008,3.6067452432906877,38.75,45.963,31.536
10/01/2008,3.6049088060587606,38.75,45.959,31.54
09/01/2008,3.3374479396688717,38.88,45.554,32.205
08/01/2008,3.8026563084244147,38.45,46.055,30.844
07/01/2008,4.238700272489198,37.91,46.387,29.432
06/01/2008,4.519036954927454,37.51,46.548,28.471
05/01/2008,4.894830053229632,36.78,46.569,26.99
04/01/2008,5.129241781199244,35.82,46.078,25.561
03/01/2008,5.201686385202399,34.9,45.303,24.496
02/01/2008,5.476591207128756,34.24,45.193,23.286
01/01/2008,5.789184096226341,33.6,45.178,22.021
12/01/2007,5.917627269438317,33.03,44.865,21.194
11/01/2007,5.805850389908442,32.3,43.911,20.688
10/01/2007,5.41817727653867,31.57,42.406,20.733
09/01/2007,4.602463063404203,30.66,39.864,21.455
08/01/2007,4.318455887235622,30.18,38.816,21.543
07/01/2007,4.162552251924293,29.67,37.995,21.344
06/01/2007,3.8871451606545397,29.22,36.994,21.445
05/01/2007,3.675173295233846,28.72,36.07,21.369
04/01/2007,3.150658661296079,28.09,34.391,21.788
03/01/2007,2.5406869149897244,27.5,32.581,22.418
02/01/2007,2.1964471311643265,27.07,31.462,22.677
01/01/2007,1.7687166957995277,26.7,30.237,23.162
12/01/2006,1.5721569578130548,26.42,29.564,23.275
11/01/2006,1.4781318445930318,26.15,29.106,23.193
10/01/2006,1.0628352412297966,25.92,28.045,23.794
09/01/2006,1.0028023234915244,25.84,27.845,23.834
08/01/2006,1.0587463105012456,25.78,27.897,23.662
07/01/2006,1.0670607995798553,25.81,27.944,23.675
06/01/2006,1.071722911950659,25.84,27.983,23.696
05/01/2006,1.1718249655985316,25.77,28.113,23.426
04/01/2006,1.4242050414178429,25.55,28.398,22.701
03/01/2006,1.542085843914015,25.38,28.464,22.295
02/01/2006,1.706786087944239,25.06,28.473,21.646
01/01/2006,1.8071023075631327,24.82,28.434,21.205
12/01/2005,1.882296469741151,24.43,28.194,20.665
11/01/2005,2.107072613841298,24.1,28.314,19.885
10/01/2005,2.21847441950544,23.69,28.126,19.253
09/01/2005,2.2956227368624837,23.42,28.011,18.828
08/01/2005,2.3822875036401463,23.18,27.944,18.415
07/01/2005,2.4776808712988037,22.91,27.865,17.954
06/01/2005,2.699278144245235,22.54,27.938,17.141
05/01/2005,2.7950389084948353,22.16,27.75,16.569
04/01/2005,2.833478207080478,21.83,27.496,16.163
03/01/2005,2.8230891767707234,21.6,27.246,15.953
02/01/2005,2.704895330692114,21.24,26.649,15.83
01/01/2005,2.5771454654326367,20.85,26.004,15.695
12/01/2004,2.5514471383902904,20.51,25.612,15.407
11/01/2004,2.2613275967891076,20.05,24.572,15.527
10/01/2004,1.9160747636770337,19.54,23.372,15.707
09/01/2004,1.92294240683386,19.13,22.975,15.284
08/01/2004,2.071350103193567,18.75,22.892,14.607
07/01/2004,1.9656935798847186,18.39,22.321,14.458
06/01/2004,1.9953282937902723,18.08,22.07,14.089
05/01/2004,1.9911792988076187,17.69,21.672,13.707
04/01/2004,2.098126545277953,17.34,21.536,13.143
03/01/2004,2.046224572230526,17.16,21.252,13.067
02/01/2004,2.0437869262719146,16.95,21.037,12.862
01/01/2004,1.9251636294091987,16.71,20.56,12.859
12/01/2003,1.8288517572509804,16.64,20.297,12.982
11/01/2003,1.7666012566507472,16.59,20.123,13.056
10/01/2003,1.7683664778546326,16.6,20.136,13.063
09/01/2003,1.7510282693320516,16.57,20.072,13.067
08/01/2003,1.7055420692554022,16.45,19.861,13.038
07/01/2003,1.570235651104636,16.35,19.49,13.209
06/01/2003,1.4813840656629191,16.24,19.202,13.277
05/01/2003,1.4450428194347735,16.09,18.98,13.199
04/01/2003,1.408640745541602,16.01,18.827,13.192
03/01/2003,1.445243924048809,16.05,18.94,13.159
02/01/2003,1.4484297532155295,16.06,18.956,13.163
01/01/2003,1.4334556149389488,16.11,18.976,13.243
12/01/2002,1.3757052736687463,16.22,18.971,13.468
11/01/2002,1.3724831510805515,16.23,18.974,13.485
10/01/2002,1.360077663223685,16.24,18.96,13.519
09/01/2002,1.3300657878466011,16.26,18.92,13.599
08/01/2002,1.2033718253308077,16.34,18.746,13.933
07/01/2002,1.2551648298132003,16.27,18.78,13.759
06/01/2002,1.4784108867293964,16.15,19.106,13.193
05/01/2002,1.9434360678962401,15.9,19.786,12.013
04/01/2002,2.01136116846279,15.56,19.582,11.537
03/01/2002,2.057917333130755,15.22,19.335,11.104
02/01/2002,2.0691683111820556,14.96,19.098,10.821
01/01/2002,2.0197270855241802,14.77,18.809,10.73
12/01/2001,2.0227351532022175,14.64,18.685,10.594
11/01/2001,1.9124529405974933,14.47,18.294,10.645
10/01/2001,1.8739563762265117,14.32,18.067,10.572
09/01/2001,1.9331819624649924,14.17,18.036,10.303
08/01/2001,2.006861355450346,13.92,17.933,9.906
07/01/2001,1.8052136300172341,13.65,17.26,10.039
06/01/2001,1.6829813575913428,13.51,16.875,10.144
05/01/2001,1.564135543998665,13.37,16.498,10.241
04/01/2001,1.3921637834680225,13.21,15.994,10.425
03/01/2001,1.261072955859414,13.07,15.592,10.547
02/01/2001,1.205090764216538,13.03,15.44,10.619
01/01/2001,1.2482763115592637,13.06,15.556,10.563
12/01/2000,1.1823657429069907,13.0,15.364,10.635
11/01/2000,1.1419539176341573,12.97,15.253,10.686
10/01/2000,1.1369295272795055,12.99,15.263,10.716
09/01/2000,0.9689775539195942,13.16,15.097,11.222
08/01/2000,0.934514579875563,13.24,15.109,11.37
07/01/2000,0.8741917695791924,13.36,15.108,11.611
06/01/2000,0.8587265280635039,13.44,15.157,11.722
05/01/2000,0.8586712118150928,13.43,15.147,11.712
04/01/2000,0.968174183708696,13.34,15.276,11.403
03/01/2000,0.9654150661762015,13.33,15.26,11.399
02/01/2000,1.0645632907441436,13.43,15.559,11.3
01/01/2000,1.1035284318947112,13.61,15.817,11.402
12/01/1999,1.0691842684963149,13.87,16.008,11.731
11/01/1999,1.0897660299348662,14.03,16.209,11.85
10/01/1999,1.1048303037118414,14.1,16.309,11.89
09/01/1999,1.0961706071593051,14.15,16.342,11.957
08/01/1999,1.1264523957984198,14.12,16.372,11.867
07/01/1999,1.092082872313269,14.17,16.354,11.985
06/01/1999,1.0900894458713009,14.16,16.34,11.979
05/01/1999,1.076001858734454,14.09,16.242,11.937
04/01/1999,1.073505938502438,14.1,16.247,11.952
03/01/1999,1.073287007281836,14.11,16.256,11.963
02/01/1999,1.0893507240553888,14.09,16.268,11.911
01/01/1999,1.2457066267785524,13.97,16.461,11.478
12/01/1998,1.3950430100896531,13.85,16.64,11.059
11/01/1998,1.625930502819847,13.65,16.901,10.398
10/01/1998,1.8504337329393885,13.42,17.12,9.719
09/01/1998,2.000373715084259,13.25,17.25,9.249
08/01/1998,2.233997538046987,13.1,17.567,8.632
07/01/1998,2.404274318791431,12.83,17.638,8.021
06/01/1998,2.4945911488658816,12.5,17.489,7.51
05/01/1998,2.5690270531856996,12.12,17.258,6.981
04/01/1998,2.537308613472157,11.71,16.784,6.635
03/01/1998,2.4492815273055073,11.37,16.268,6.471
02/01/1998,2.3846289019467997,11.03,15.799,6.26
01/01/1998,2.3658560818443712,10.69,15.421,5.958
12/01/1997,2.3181037509136644,10.58,15.216,5.943
11/01/1997,2.201778826312943,10.36,14.763,5.956
10/01/1997,2.0131182280233815,10.16,14.186,6.133
09/01/1997,1.8485548409500867,9.93,13.627,6.232
08/01/1997,1.6010465327403824,9.7,12.902,6.497
07/01/1997,1.2504679124231857,9.46,11.96,6.959
06/01/1997,1.0048631747655996,9.28,11.289,7.27
05/01/1997,0.9000916619989322,9.14,10.94,7.339
04/01/1997,0.79838587161848,9.0,10.596,7.403
03/01/1997,0.7956129712366435,8.9,10.491,7.308
02/01/1997,0.7901613759226656,8.83,10.41,7.249
01/01/1997,0.7658132931726899,8.74,10.271,7.208
12/01/1996,0.8000718717715304,8.7,10.3,7.099
11/01/1996,0.8495469380793508,8.63,10.329,6.93
10/01/1996,0.9079564967552136,8.56,10.375,6.744
09/01/1996,0.9547931713203652,8.51,10.419,6.6
08/01/1996,1.0526324144733528,8.43,10.535,6.324
07/01/1996,1.08395110590838,8.35,10.517,6.182
06/01/1996,1.1615786671594825,8.26,10.583,5.936
05/01/1996,1.1952112783939082,8.22,10.61,5.829
04/01/1996,1.104540628496752,8.03,10.239,5.82
03/01/1996,1.1511450820813163,7.85,10.152,5.547
02/01/1996,1.0563474807088813,7.64,9.752,5.527
01/01/1996,1.0795415693709993,7.47,9.629,5.31
12/01/1995,1.0318866216789517,7.31,9.373,5.246
11/01/1995,0.9850761391892506,7.12,9.09,5.149
10/01/1995,0.9583397101237119,6.94,8.856,5.023
09/01/1995,0.9287626176801045,6.79,8.647,4.932
08/01/1995,0.9218893642948703,6.63,8.473,4.786
07/01/1995,0.9216371303284172,6.49,8.333,4.646
06/01/1995,0.8516102394875251,6.35,8.053,4.646
05/01/1995,0.7886095358287268,6.21,7.787,4.632
04/01/1995,0.7437237390321758,6.09,7.577,4.602
03/01/1995,0.7343126037322252,5.96,7.428,4.491
02/01/1995,0.7324445371494008,5.84,7.304,4.375
01/01/1995,0.7171924427934249,5.71,7.144,4.275
12/01/1994,0.7578126417525641,5.6,7.115,4.084
11/01/1994,0.0,0.0,0.0,0.0
10/01/1994,0.0,0.0,0.0,0.0
09/01/1994,0.0,0.0,0.0,0.0
08/01/1994,0.0,0.0,0.0,0.0
07/01/1994,0.0,0.0,0.0,0.0
06/01/1994,0.0,0.0,0.0,0.0
05/01/1994,0.0,0.0,0.0,0.0
04/01/1994,0.0,0.0,0.0,0.0
03/01/1994,0.0,0.0,0.0,0.0
02/01/1994,0.0,0.0,0.0,0.0
01/01/1994,0.0,0.0,0.0,0.0
12/01/1993,0.0,0.0,0.0,0.0
11/01/1993,0.0,0.0,0.0,0.0
10/01/1993,0.0,0.0,0.0,0.0
09/01/1993,0.0,0.0,0.0,0.0
08/01/1993,0.0,0.0,0.0,0.0
07/01/1993,0.0,0.0,0.0,0.0
06/01/1993,0.0,0.0,0.0,0.0
05/01/1993,0.0,0.0,0.0,0.0
