12/29/2023,no data
12/28/2023,no data
12/27/2023,no data
12/26/2023,no data
12/22/2023,no data
12/21/2023,no data
12/20/2023,1703082900000,126.2544,126.26,126.26,126.26,126.26,209
12/19/2023,1702996500000,127.5193,127.7,127.39,127.7,127.39,250
12/18/2023,no data
12/15/2023,1702650900000,127.3053,127.29,127.29,127.29,127.29,347
12/14/2023,no data
12/13/2023,1702478100000,127.6765,127.68,127.675,127.68,127.675,307
12/12/2023,no data
12/11/2023,1702305300000,127.2454,127.23,127.29,127.29,127.23,845
12/08/2023,no data
12/07/2023,no data
12/06/2023,no data
12/05/2023,no data
12/04/2023,no data
12/01/2023,1701441300000,126.9502,126.88,126.89,126.89,126.88,472
11/30/2023,no data
11/29/2023,no data
11/28/2023,1701182100000,127.0294,127.0,127.01,127.01,127.0,438
11/27/2023,no data
11/24/2023,1700836500000,128.15,128.15,128.15,128.15,128.15,100
11/22/2023,1700663700000,127.4611,127.44,127.44,127.44,127.44,338
11/21/2023,no data
11/20/2023,no data
11/17/2023,no data
11/16/2023,no data
11/15/2023,no data
11/14/2023,no data
11/13/2023,no data
11/10/2023,no data
11/09/2023,no data
11/08/2023,1699454100000,124.8547,124.87,124.87,124.87,124.87,114
11/07/2023,no data
11/06/2023,1699281300000,125.4597,125.46,125.46,125.46,125.46,101
11/03/2023,1699018500000,124.6868,124.59,124.59,124.59,124.59,199
11/02/2023,no data
11/01/2023,no data
10/31/2023,no data
10/30/2023,no data
10/27/2023,1698413700000,122.6474,122.57,122.98,122.98,122.54,848
10/26/2023,1698327300000,123.0708,123.46,122.64,123.46,122.64,1471
10/25/2023,1698240900000,122.6625,122.9,122.74,122.9,122.28,606
10/24/2023,no data
10/23/2023,no data
10/20/2023,1697808900000,126.1717,126.28,126.33,126.33,126.18,790
10/19/2023,1697722500000,126.2375,126.04,126.04,126.04,126.04,273
10/18/2023,no data
10/17/2023,no data
10/16/2023,no data
10/13/2023,no data
10/12/2023,no data
10/11/2023,1697031300000,126.9276,126.849,126.849,126.849,126.849,235
10/10/2023,no data
10/09/2023,no data
10/06/2023,no data
10/05/2023,no data
10/04/2023,no data
10/03/2023,no data
10/02/2023,no data
09/29/2023,1695994500000,126.7643,126.77,126.525,126.77,126.525,444
09/28/2023,no data
09/27/2023,no data
09/26/2023,no data
09/25/2023,no data
09/22/2023,no data
09/21/2023,1695303300000,124.3176,124.35,124.35,124.35,124.35,340
09/20/2023,no data
09/19/2023,1695130500000,125.4546,125.445,125.445,125.445,125.445,108
09/18/2023,no data
09/15/2023,no data
09/14/2023,no data
09/13/2023,no data
09/12/2023,1694525700000,126.8727,126.855,126.855,126.855,126.855,137
09/11/2023,1694439300000,126.88,126.82,126.9,126.9,126.82,649
09/08/2023,1694180100000,125.38,125.38,125.38,125.38,125.38,100
09/07/2023,no data
09/06/2023,1694007300000,127.3986,127.33,127.33,127.33,127.33,243
09/05/2023,1693920900000,131.0807,131.17,130.53,131.3825,130.53,1455
09/01/2023,no data
08/31/2023,no data
08/30/2023,1693402500000,132.17,132.245,132.245,132.245,132.245,360
08/29/2023,no data
08/28/2023,no data
08/25/2023,1692970500000,125.57,125.57,125.57,125.57,125.57,334
08/24/2023,no data
08/23/2023,no data
08/22/2023,no data
08/21/2023,no data
08/18/2023,1692365700000,121.4894,121.48,121.48,121.48,121.48,127
08/17/2023,no data
08/16/2023,no data
08/15/2023,no data
08/14/2023,no data
08/11/2023,no data
08/10/2023,no data
08/09/2023,no data
08/08/2023,1691501700000,120.532,120.535,120.535,120.535,120.535,204
08/07/2023,no data
08/04/2023,1691156100000,120.952,120.95,120.955,120.955,120.95,951
08/03/2023,1691069700000,121.6112,121.6,121.59,121.6,121.59,223
08/02/2023,1690983300000,120.6654,120.68,120.68,120.68,120.68,201
08/01/2023,1690896900000,121.1434,121.39,121.12,121.39,121.12,726
07/31/2023,no data
07/28/2023,no data
07/27/2023,no data
07/26/2023,1690378500000,120.0846,120.05,120.05,120.05,120.05,308
07/25/2023,no data
07/24/2023,1690205700000,119.7929,119.85,119.85,119.85,119.85,474
07/21/2023,no data
07/20/2023,no data
07/19/2023,no data
07/18/2023,1689687300000,119.663,119.54,119.82,119.82,119.54,1114
07/17/2023,no data
07/14/2023,1689341700000,117.1077,117.14,117.295,117.295,117.09,1797
07/13/2023,no data
07/12/2023,1689168900000,116.3127,116.31,116.31,116.31,116.31,101
07/11/2023,no data
07/10/2023,no data
07/07/2023,no data
07/06/2023,no data
07/05/2023,1688564100000,115.4195,115.4,115.4,115.4,115.4,105
07/03/2023,1688391300000,116.008,116.04,115.995,116.05,115.995,681
06/30/2023,no data
06/29/2023,no data
06/28/2023,1687959300000,113.3939,113.39,113.39,113.39,113.39,102
06/27/2023,no data
06/26/2023,no data
06/23/2023,no data
06/22/2023,1687440900000,113.0636,113.065,113.065,113.065,113.065,110
06/21/2023,no data
06/20/2023,no data
06/16/2023,no data
06/15/2023,no data
06/14/2023,no data
06/13/2023,1686663300000,115.6133,115.53,115.53,115.53,115.53,601
06/12/2023,1686576900000,114.6931,114.43,114.635,114.635,114.43,437
06/09/2023,1686317700000,115.1083,114.835,115.26,115.26,114.835,300
06/08/2023,no data
06/07/2023,no data
06/06/2023,no data
06/05/2023,no data
06/02/2023,no data
06/01/2023,no data
05/31/2023,no data
05/30/2023,no data
05/26/2023,no data
05/25/2023,no data
05/24/2023,1684935300000,116.3999,116.56,116.195,116.56,116.195,436
05/23/2023,no data
05/22/2023,no data
05/19/2023,no data
05/18/2023,1684416900000,118.13,118.13,118.13,118.13,118.13,100
05/17/2023,no data
05/16/2023,1684244100000,119.505,119.51,119.5,119.51,119.5,200
05/15/2023,no data
05/12/2023,1683898500000,120.157,120.05,120.065,120.7,120.05,1724
05/11/2023,no data
05/10/2023,no data
05/09/2023,no data
05/08/2023,no data
05/05/2023,1683293700000,119.5998,120.1,119.33,120.1,119.32,1019
05/04/2023,no data
05/03/2023,no data
05/02/2023,1683034500000,118.0348,118.07,118.03,118.07,118.03,1801
05/01/2023,1682948100000,120.1055,120.04,120.04,120.04,120.04,141
04/28/2023,no data
04/27/2023,1682602500000,115.5429,115.31,115.905,116.39,115.25,1118
04/26/2023,no data
04/25/2023,no data
04/24/2023,no data
04/21/2023,no data
04/20/2023,no data
04/19/2023,no data
04/18/2023,1681824900000,119.444,119.345,119.08,119.71,119.08,697
04/17/2023,no data
04/14/2023,1681479300000,119.8444,119.905,119.905,119.905,119.905,109
04/13/2023,no data
04/12/2023,no data
04/11/2023,no data
04/10/2023,no data
04/06/2023,no data
04/05/2023,no data
04/04/2023,no data
04/03/2023,no data
03/31/2023,no data
03/30/2023,1680183300000,115.832,115.847,115.847,115.847,115.847,157
03/29/2023,no data
03/28/2023,no data
03/27/2023,no data
03/24/2023,1679664900000,110.4338,110.405,110.415,110.415,110.405,237
03/23/2023,no data
03/22/2023,1679492100000,112.8258,112.825,112.825,112.825,112.825,301
03/21/2023,no data
03/20/2023,1679319300000,111.8207,111.825,111.825,111.825,111.825,101
03/17/2023,no data
03/16/2023,no data
03/15/2023,no data
03/14/2023,no data
03/13/2023,1678714500000,112.1242,112.11,112.11,112.11,112.11,116
03/10/2023,no data
03/09/2023,no data
03/08/2023,no data
03/07/2023,no data
03/06/2023,no data
03/03/2023,no data
03/02/2023,no data
03/01/2023,no data
02/28/2023,no data
02/27/2023,no data
02/24/2023,1677249300000,113.5438,113.46,114.14,114.14,113.46,1522
02/23/2023,no data
02/22/2023,1677076500000,115.2358,115.24,115.24,115.24,115.24,152
02/21/2023,1676990100000,115.3715,115.32,115.23,115.32,115.23,673
02/17/2023,no data
02/16/2023,no data
02/15/2023,no data
02/14/2023,no data
02/13/2023,no data
02/10/2023,no data
02/09/2023,1675953300000,111.1599,111.13,111.155,111.155,111.13,212
02/08/2023,no data
02/07/2023,no data
02/06/2023,no data
02/03/2023,no data
02/02/2023,no data
02/01/2023,no data
01/31/2023,no data
01/30/2023,1675089300000,112.0754,112.0,112.035,112.035,112.0,372
01/27/2023,no data
01/26/2023,1674743700000,112.5271,112.505,112.505,112.505,112.505,107
01/25/2023,1674657300000,111.9716,112.0315,112.0315,112.0315,112.0315,843
01/24/2023,no data
01/23/2023,no data
01/20/2023,no data
01/19/2023,no data
01/18/2023,no data
01/17/2023,no data
01/13/2023,1673620500000,113.3323,113.31,113.31,113.31,113.31,111
01/12/2023,no data
01/11/2023,no data
01/10/2023,no data
01/09/2023,1673274900000,114.3393,114.33,114.33,114.33,114.33,207
01/06/2023,1673015700000,113.6854,113.58,113.58,113.58,113.58,147
01/05/2023,no data
01/04/2023,1672842900000,111.8162,111.76,111.775,112.0,111.69,2191
01/03/2023,1672756500000,110.9749,110.89,110.88,111.07,110.88,926
