10/01/2022,14.907878286329009,113.07,142.885,83.254
07/01/2022,16.00809342176638,111.89,143.906,79.873
04/01/2022,16.5702255567026,111.45,144.59,78.309
01/01/2022,17.342096759042718,110.64,145.324,75.955
10/01/2021,18.732127348488746,108.61,146.074,71.145
07/01/2021,19.926806818956216,106.16,146.013,66.306
04/01/2021,20.622932623659516,104.06,145.305,62.814
01/01/2021,19.4739368130843,100.98,139.927,62.032
10/01/2020,17.66051938647332,97.81,133.131,62.488
07/01/2020,16.027739547422154,94.6,126.655,62.544
04/01/2020,16.58405725388091,92.24,125.408,59.071
01/01/2020,17.03706840979398,89.83,123.904,55.755
10/01/2019,17.80199707897965,88.03,123.633,52.426
07/01/2019,17.185546834476927,85.59,119.961,51.218
04/01/2019,16.247652599683438,82.7,115.195,50.204
01/01/2019,13.468197355251368,79.84,106.776,52.903
10/01/2018,12.308867332130928,77.82,102.437,53.202
07/01/2018,11.89926237209685,76.51,100.308,52.711
04/01/2018,10.028127442349343,74.13,94.186,54.073
01/01/2018,9.812222225367707,72.22,91.844,52.595
10/01/2017,9.443924766748196,70.59,89.477,51.702
07/01/2017,9.966489602663517,68.67,88.602,48.737
04/01/2017,9.754460774435458,66.94,86.448,47.431
01/01/2017,9.20409528416563,65.15,83.558,46.741
10/01/2016,9.047105061841606,64.04,82.134,45.945
07/01/2016,9.128241342120615,62.97,81.226,44.713
04/01/2016,9.325616869676772,61.33,79.981,42.678
01/01/2016,8.566364164568304,59.99,77.122,42.857
10/01/2015,7.700134089741555,58.58,73.98,43.179
07/01/2015,7.340543236028243,57.33,72.011,42.648
04/01/2015,7.478047204986072,56.31,71.266,41.353
01/01/2015,8.279753317581388,55.01,71.569,38.45
10/01/2014,8.703188496177708,53.81,71.216,36.403
07/01/2014,9.008452142293924,52.25,70.266,34.233
04/01/2014,9.343883025808918,51.08,69.767,32.392
01/01/2014,9.31948228175793,49.42,68.058,30.781
10/01/2013,9.305968514883338,47.67,66.281,29.058
07/01/2013,8.450226920030017,46.05,62.95,29.149
04/01/2013,7.923896453134657,44.99,60.837,29.142
01/01/2013,7.589082619131247,44.33,59.508,29.151
10/01/2012,7.051997943845418,43.41,57.513,29.306
07/01/2012,6.999912142305788,43.07,57.069,29.07
04/01/2012,6.792601121808935,42.38,55.965,28.794
01/01/2012,6.641059026992608,41.6,54.882,28.317
10/01/2011,6.132929255258046,40.54,52.805,28.274
07/01/2011,5.969546988675105,39.41,51.349,27.47
04/01/2011,6.563345278895512,38.44,51.566,25.313
01/01/2011,6.38975058198675,37.07,49.849,24.29
10/01/2010,5.957291225884463,35.94,47.854,24.025
07/01/2010,5.693872034916134,34.87,46.257,23.482
04/01/2010,5.5202065178759385,33.83,44.87,22.789
01/01/2010,5.731047024759088,33.21,44.672,21.747
10/01/2009,5.754950043223659,32.54,44.049,21.03
07/01/2009,5.855035012704877,32.07,43.78,20.359
04/01/2009,6.114145177373531,31.31,43.538,19.081
01/01/2009,6.418590382630753,30.71,43.547,17.872
10/01/2008,6.888792528447928,30.11,43.887,16.332
07/01/2008,7.152064212519348,29.33,43.634,15.025
04/01/2008,7.16343170205454,28.29,42.616,13.963
01/01/2008,6.770330771092355,27.09,40.63,13.549
10/01/2007,6.594602338276357,25.95,39.139,12.76
07/01/2007,6.003247870944528,24.69,36.696,12.683
04/01/2007,5.673369920073959,23.47,34.816,12.123
01/01/2007,5.208357946608509,22.46,32.876,12.043
10/01/2006,4.652698410600025,21.66,30.965,12.354
07/01/2006,4.3653377589826885,21.06,29.79,12.329
04/01/2006,4.381724974253861,20.58,29.343,11.816
01/01/2006,4.367685743045166,20.15,28.885,11.414
10/01/2005,4.136395623003196,19.53,27.802,11.257
07/01/2005,3.97498034586336,18.96,26.909,11.01
04/01/2005,4.0076130676501185,18.32,26.335,10.304
01/01/2005,3.7890450643928744,17.72,25.298,10.141
10/01/2004,3.3904489009569216,17.09,23.87,10.309
07/01/2004,2.7777875638716503,16.4,21.955,10.844
04/01/2004,2.5346799600738548,15.97,21.039,10.9
01/01/2004,2.150893128446878,15.62,19.921,11.318
10/01/2003,2.057978680647591,15.31,19.425,11.194
07/01/2003,1.8349104201567985,15.04,18.709,11.37
04/01/2003,1.8356946913907006,14.69,18.361,11.018
01/01/2003,1.6865793785055,14.57,17.943,11.196
10/01/2002,1.6500132575224962,14.51,17.81,11.209
07/01/2002,1.635121937349016,14.43,17.7,11.159
04/01/2002,1.6228824664774708,14.45,17.695,11.204
01/01/2002,1.7446048979640059,14.25,17.739,10.76
10/01/2001,1.8568710240617143,13.85,17.563,10.136
07/01/2001,1.9641496251558839,13.42,17.348,9.491
04/01/2001,2.201083539986613,13.02,17.422,8.617
01/01/2001,2.374787885264703,12.59,17.339,7.84
10/01/2000,2.3398421421113005,12.35,17.029,7.67
07/01/2000,2.36236772116451,12.08,16.804,7.355
04/01/2000,2.503573695739752,11.89,16.897,6.882
01/01/2000,2.609795250589594,11.62,16.839,6.4
10/01/1999,2.749903634675223,11.31,16.809,5.81
07/01/1999,2.8742920867580595,11.04,16.788,5.291
04/01/1999,2.966546814058393,10.71,16.643,4.776
01/01/1999,2.9875399578917774,10.25,16.225,4.274
10/01/1998,3.098919973151937,9.86,16.057,3.662
07/01/1998,3.1035503862512046,9.42,15.627,3.212
04/01/1998,3.196308808610332,9.12,15.512,2.727
01/01/1998,2.978152111628954,8.57,14.526,2.613
10/01/1997,0.0,0.0,0.0,0.0
07/01/1997,0.0,0.0,0.0,0.0
04/01/1997,0.0,0.0,0.0,0.0
01/01/1997,0.0,0.0,0.0,0.0
10/01/1996,0.0,0.0,0.0,0.0
07/01/1996,0.0,0.0,0.0,0.0
04/01/1996,0.0,0.0,0.0,0.0
01/01/1996,0.0,0.0,0.0,0.0
10/01/1995,0.0,0.0,0.0,0.0
07/01/1995,0.0,0.0,0.0,0.0
04/01/1995,0.0,0.0,0.0,0.0
01/01/1995,0.0,0.0,0.0,0.0
10/01/1994,0.0,0.0,0.0,0.0
07/01/1994,0.0,0.0,0.0,0.0
04/01/1994,0.0,0.0,0.0,0.0
01/01/1994,0.0,0.0,0.0,0.0
10/01/1993,0.0,0.0,0.0,0.0
07/01/1993,0.0,0.0,0.0,0.0
05/01/1993,0.0,0.0,0.0,0.0
